time,.data
2022/11/28/23:08:16.963025,"(-3, 0, -4, -3, -2, -2, 8, -4)"
2022/11/28/23:08:16.963086,"(3, -4, 0, 0, -1, 0, 5, -2)"
2022/11/28/23:08:16.964141,"(-1, -6, -3, -1, 0, 3, -8, 0)"
2022/11/28/23:08:16.964169,"(9, 0, 3, -1, -1, -2, 9, 4)"
2022/11/28/23:08:16.977067,"(23, -1, -2, 0, -1, 1, -2, 2)"
2022/11/28/23:08:16.977082,"(-1, -8, -8, -4, -1, 2, 2, 1)"
2022/11/28/23:08:16.984778,"(-13, 1, -2, 2, 0, -1, -2, 10)"
2022/11/28/23:08:16.984794,"(-21, 1, 6, -2, -2, -4, -5, -16)"
2022/11/28/23:08:17.000428,"(25, -4, -6, -2, -2, 1, 1, 29)"
2022/11/28/23:08:17.000560,"(-14, -12, 2, -1, -1, 1, 12, 3)"
2022/11/28/23:08:17.001125,"(-4, -66, -21, -9, -6, -8, -7, -10)"
2022/11/28/23:08:17.001139,"(-8, 52, -3, 0, -1, 0, 18, 39)"
2022/11/28/23:08:17.023602,"(2, -3, 11, 2, -1, -2, -9, -73)"
2022/11/28/23:08:17.023618,"(29, 8, -6, -4, -1, 0, 2, 33)"
2022/11/28/23:08:17.024067,"(10, 2, 15, 6, 1, -1, 19, 26)"
2022/11/28/23:08:17.024082,"(-10, -20, -5, -3, -3, -5, -41, -4)"
2022/11/28/23:08:17.037140,"(-17, -2, -6, -4, -2, 0, 21, 10)"
2022/11/28/23:08:17.037162,"(8, 11, 4, 4, 1, 1, -24, 0)"
2022/11/28/23:08:17.045502,"(4, 4, -10, -2, 0, 0, 16, 61)"
2022/11/28/23:08:17.045546,"(35, -14, -2, -2, -1, 3, 10, -10)"
2022/11/28/23:08:17.060911,"(-24, 7, -8, -5, -4, -5, -5, -13)"
2022/11/28/23:08:17.060933,"(11, -10, 3, -1, 0, 0, -10, 52)"
2022/11/28/23:08:17.061685,"(-65, 24, -1, -2, -3, -3, -9, -42)"
2022/11/28/23:08:17.061693,"(93, 27, 21, 4, 3, 4, 18, 6)"
2022/11/28/23:08:17.083792,"(-94, -2, -24, -7, -4, -3, -15, 59)"
2022/11/28/23:08:17.083826,"(-27, -32, 28, 5, -2, -2, 21, -42)"
2022/11/28/23:08:17.084169,"(20, 7, 0, 0, 1, 0, -14, 82)"
2022/11/28/23:08:17.084433,"(-76, -10, -12, -3, -3, -6, 3, -90)"
2022/11/28/23:08:17.105539,"(31, -1, 6, 2, 1, 6, 12, 68)"
2022/11/28/23:08:17.105557,"(-4, -24, -36, -5, -3, -4, -22, -2)"
2022/11/28/23:08:17.106292,"(69, 57, 16, -1, 0, -1, -14, 3)"
2022/11/28/23:08:17.106299,"(-6, -31, -4, -1, 0, -1, 13, 8)"
2022/11/28/23:08:17.120969,"(45, -11, -12, 0, 4, 2, 8, -24)"
2022/11/28/23:08:17.120992,"(-51, 69, -5, -14, -2, -1, -3, 31)"
2022/11/28/23:08:17.121273,"(52, -104, 10, 1, -1, 3, 28, 81)"
2022/11/28/23:08:17.121279,"(-84, 28, 3, 29, 1, -1, 0, -2)"
2022/11/28/23:08:17.143093,"(-47, -34, 2, -6, 5, 0, -28, 20)"
2022/11/28/23:08:17.143118,"(85, -51, -33, -12, -6, -13, -21, -111)"
2022/11/28/23:08:17.143952,"(-19, 16, 1, -14, -6, 1, -7, -53)"
2022/11/28/23:08:17.143959,"(-2, -20, 13, 5, 0, -3, 9, -27)"
2022/11/28/23:08:17.165501,"(-23, -25, -12, -8, -3, -1, 0, 54)"
2022/11/28/23:08:17.165526,"(34, 23, 20, 19, 1, 2, 1, -87)"
2022/11/28/23:08:17.166358,"(68, 6, -79, -53, 0, -1, 10, 4)"
2022/11/28/23:08:17.166381,"(-74, 3, 81, 14, -6, -6, -31, 1)"
2022/11/28/23:08:17.180866,"(76, -47, -5, 82, 1, 4, 21, 49)"
2022/11/28/23:08:17.180895,"(55, -48, -71, -70, -5, -2, -3, -6)"
2022/11/28/23:08:17.181551,"(-78, 59, -30, -57, -5, -9, -22, -71)"
2022/11/28/23:08:17.181560,"(55, 34, 23, 66, 8, 7, 13, 34)"
2022/11/28/23:08:17.202944,"(79, -23, -45, -97, 2, -3, -6, -13)"
2022/11/28/23:08:17.203085,"(-73, 69, 85, 68, 2, 3, 15, 25)"
2022/11/28/23:08:17.203788,"(-23, 60, 27, -34, -7, 0, 19, -29)"
2022/11/28/23:08:17.203795,"(-81, -27, -49, -46, -4, -2, -20, 16)"
2022/11/28/23:08:17.226215,"(-3, 126, 127, 52, -8, -7, -20, -90)"
2022/11/28/23:08:17.226250,"(11, -54, -4, 20, 8, 4, 21, 24)"
2022/11/28/23:08:17.227055,"(66, 3, 11, 61, 2, 0, -17, -1)"
2022/11/28/23:08:17.227065,"(-38, -34, -128, -104, -7, -6, -16, -59)"
2022/11/28/23:08:17.240539,"(-16, -79, 71, 41, -2, -3, 6, -42)"
2022/11/28/23:08:17.240708,"(-7, -33, -60, -103, -3, 4, 8, 27)"
2022/11/28/23:08:17.241770,"(61, -2, 112, 127, 3, 0, -6, -10)"
2022/11/28/23:08:17.241781,"(44, 58, 69, -29, 1, -5, -7, 27)"
2022/11/28/23:08:17.263510,"(-37, -47, -49, 11, -2, 0, -1, -14)"
2022/11/28/23:08:17.263539,"(-17, 11, 18, 19, -8, -8, 1, 4)"
2022/11/28/23:08:17.264156,"(-94, -44, -29, -38, 5, 1, 2, -15)"
2022/11/28/23:08:17.264167,"(117, -1, -89, -34, -6, 1, -5, 18)"
2022/11/28/23:08:17.286577,"(-16, 21, -7, -30, -1, -1, 3, -15)"
2022/11/28/23:08:17.286611,"(-26, 6, -28, 38, 9, -1, -1, 24)"
2022/11/28/23:08:17.286634,"(6, -11, 10, 64, -5, 0, -3, -1)"
2022/11/28/23:08:17.286641,"(11, 9, 15, -15, -1, -2, 1, 8)"
2022/11/28/23:08:17.300252,"(5, 46, -1, -4, 2, -2, 1, -1)"
2022/11/28/23:08:17.300263,"(-8, -22, 1, -15, -4, 3, 12, 13)"
2022/11/28/23:08:17.301003,"(-8, 9, -4, -5, 4, 4, -16, -13)"
2022/11/28/23:08:17.301013,"(7, -13, 29, 17, 4, -1, 7, 7)"
2022/11/28/23:08:17.323633,"(-19, -26, -26, -56, -9, -2, -1, -11)"
2022/11/28/23:08:17.323735,"(15, 13, -87, 38, -5, 6, -6, 7)"
2022/11/28/23:08:17.324340,"(-5, 31, 97, -41, 14, 3, -3, -1)"
2022/11/28/23:08:17.324356,"(3, -11, 12, 70, -1, 8, 17, 17)"
2022/11/28/23:08:17.346036,"(4, 4, -4, -27, 4, 4, -7, -6)"
2022/11/28/23:08:17.346070,"(1, 17, -25, 9, -4, -13, -6, 1)"
2022/11/28/23:08:17.346641,"(-13, -12, 16, -80, 11, 11, -2, -1)"
2022/11/28/23:08:17.346664,"(-5, -38, -18, 69, -3, 23, -13, -6)"
2022/11/28/23:08:17.360526,"(6, 26, -4, -9, 10, -20, 5, -2)"
2022/11/28/23:08:17.360538,"(-1, 13, 55, 2, -2, 11, 16, 4)"
2022/11/28/23:08:17.361313,"(-8, -24, -57, 22, -6, -6, -8, -4)"
2022/11/28/23:08:17.361331,"(9, -8, 12, -32, 3, 6, 32, 0)"
2022/11/28/23:08:17.383435,"(2, 17, 1, 58, 3, 2, 4, 3)"
2022/11/28/23:08:17.383461,"(-5, 4, 25, -31, 2, 5, -7, 5)"
2022/11/28/23:08:17.383896,"(-3, -13, -38, -13, -2, -12, -3, -3)"
2022/11/28/23:08:17.383905,"(2, -1, 16, 3, 1, -20, -34, 1)"
2022/11/28/23:08:17.405822,"(-2, 7, -27, -20, -8, 9, -2, -3)"
2022/11/28/23:08:17.405845,"(-2, -3, 17, 5, 5, -16, -15, -1)"
2022/11/28/23:08:17.406612,"(-4, -3, -7, -8, -6, 15, 19, -3)"
2022/11/28/23:08:17.406632,"(3, -2, 4, 11, -3, -25, -6, 1)"
2022/11/28/23:08:17.420490,"(-2, -3, -20, -7, -3, -8, -15, -3)"
2022/11/28/23:08:17.420514,"(3, 7, 32, 14, 3, 13, -7, 6)"
2022/11/28/23:08:17.421246,"(-6, -6, -22, -4, -16, -32, -2, -10)"
2022/11/28/23:08:17.421254,"(8, -6, -4, -8, 2, 13, 9, 7)"
2022/11/28/23:08:17.443675,"(-9, 1, 0, 16, 0, -15, -13, -12)"
2022/11/28/23:08:17.443702,"(-7, 5, 14, -14, -5, 4, 6, -8)"
2022/11/28/23:08:17.444283,"(0, 0, -6, 11, 0, 16, 6, 18)"
2022/11/28/23:08:17.444299,"(2, -9, -11, -19, -7, -28, -1, -15)"
2022/11/28/23:08:17.465967,"(5, 2, 0, -18, -9, 4, 5, -2)"
2022/11/28/23:08:17.465994,"(19, 4, -5, 23, 2, -3, -17, 11)"
2022/11/28/23:08:17.467435,"(-38, -9, 2, 0, -7, -4, -3, -36)"
2022/11/28/23:08:17.467452,"(-3, -10, 2, -2, 2, 5, 4, -3)"
2022/11/28/23:08:17.480334,"(10, 16, 0, -2, -3, 3, -3, 23)"
2022/11/28/23:08:17.480358,"(-5, -43, -22, -9, -8, -7, 4, 0)"
2022/11/28/23:08:17.481110,"(15, 71, 41, 12, 4, 2, -3, 9)"
2022/11/28/23:08:17.481126,"(5, -20, -13, -8, -1, 6, 7, 3)"
2022/11/28/23:08:17.503168,"(-4, 10, 14, 0, -1, 3, 16, -7)"
2022/11/28/23:08:17.503193,"(25, 7, 7, -23, -3, -2, 1, -1)"
2022/11/28/23:08:17.504032,"(-47, -26, -34, 22, -6, -4, -2, 1)"
2022/11/28/23:08:17.504061,"(24, 4, 15, -15, -5, -1, -7, 16)"
2022/11/28/23:08:17.525607,"(-29, -2, -2, 10, 11, 5, 6, -1)"
2022/11/28/23:08:17.525619,"(-20, -3, 9, 4, 1, -5, -4, -11)"
2022/11/28/23:08:17.526357,"(24, -1, -9, -1, -4, -1, -1, 5)"
2022/11/28/23:08:17.526368,"(16, -4, -9, -3, 0, 9, 5, 8)"
2022/11/28/23:08:17.540353,"(-6, -9, -5, -14, -4, -9, 7, -6)"
2022/11/28/23:08:17.540797,"(-16, -1, 6, 3, -3, 0, 4, 4)"
2022/11/28/23:08:17.541535,"(-1, -31, -20, -8, 4, -3, -8, -14)"
2022/11/28/23:08:17.541564,"(-21, 27, 28, 2, -8, 4, 9, 10)"
2022/11/28/23:08:17.563675,"(62, 17, 22, 22, 2, 4, -10, -11)"
2022/11/28/23:08:17.563697,"(-20, -14, -15, -13, -1, -7, -1, 18)"
2022/11/28/23:08:17.564490,"(25, 13, 1, 2, 3, 6, 20, 18)"
2022/11/28/23:08:17.564515,"(5, -8, -10, -6, 0, -3, -13, -4)"
2022/11/28/23:08:17.585664,"(-58, -3, -7, 0, -2, 1, -5, 6)"
2022/11/28/23:08:17.585688,"(2, 6, -1, -3, 8, -2, 0, -16)"
2022/11/28/23:08:17.586354,"(26, -5, -1, 3, -3, 0, -9, 8)"
2022/11/28/23:08:17.586361,"(-47, -2, 5, 7, 7, -1, 2, -23)"
2022/11/28/23:08:17.600681,"(-5, -12, -7, -10, -8, -6, -26, 10)"
2022/11/28/23:08:17.600703,"(44, 14, 3, 5, -1, 1, 1, -9)"
2022/11/28/23:08:17.601563,"(17, 2, -6, -4, 0, -2, 1, 3)"
2022/11/28/23:08:17.601582,"(-28, -9, -13, -3, 2, -1, -11, -11)"
2022/11/28/23:08:17.624808,"(15, 3, 2, 9, -1, 2, 2, -10)"
2022/11/28/23:08:17.624970,"(-5, -3, 3, -15, -8, -9, -1, 8)"
2022/11/28/23:08:17.625535,"(0, 0, 5, 9, 0, 4, -5, 0)"
2022/11/28/23:08:17.625556,"(28, 9, -27, -38, -5, -2, 5, -3)"
2022/11/28/23:08:17.645853,"(-2, -17, -18, 17, -2, -1, 4, 14)"
2022/11/28/23:08:17.646046,"(2, 3, 32, -6, -1, -1, 4, 3)"
2022/11/28/23:08:17.646579,"(-32, -4, 14, 28, 8, 2, 12, 4)"
2022/11/28/23:08:17.646590,"(2, -9, -13, 2, -2, 1, -3, -4)"
2022/11/28/23:08:17.668857,"(25, 19, 15, -13, 4, -1, -10, -18)"
2022/11/28/23:08:17.669083,"(15, 27, -13, 2, -3, -2, -7, -9)"
2022/11/28/23:08:17.669779,"(-52, -39, -30, -16, -7, -8, -13, -11)"
2022/11/28/23:08:17.669797,"(42, -29, -2, 4, -1, 0, 2, 13)"
2022/11/28/23:08:17.683284,"(1, 38, 13, -6, -2, 0, 4, -4)"
2022/11/28/23:08:17.683308,"(-85, -13, 7, 8, -1, 3, 4, 1)"
2022/11/28/23:08:17.683987,"(-10, -21, -3, -4, 4, 2, -3, -7)"
2022/11/28/23:08:17.683996,"(5, 3, 1, 2, -1, -6, -8, -3)"
2022/11/28/23:08:17.705820,"(2, -13, -11, -9, 1, 1, 5, 9)"
2022/11/28/23:08:17.705851,"(5, 8, 2, 4, -1, 2, 1, -8)"
2022/11/28/23:08:17.706613,"(28, 7, -5, -5, -1, -1, 16, 2)"
2022/11/28/23:08:17.706619,"(-31, -1, -2, -1, 0, -2, -25, 11)"
2022/11/28/23:08:17.720711,"(-4, -3, 0, 1, -5, -1, 22, -9)"
2022/11/28/23:08:17.720734,"(-9, -11, -5, 7, 1, -1, 1, 14)"
2022/11/28/23:08:17.721528,"(3, -3, -10, -2, 0, 3, -3, -16)"
2022/11/28/23:08:17.721560,"(16, 19, 31, 9, -8, -5, -8, -20)"
2022/11/28/23:08:17.743080,"(-16, -17, -9, -6, 0, 1, -1, 3)"
2022/11/28/23:08:17.743301,"(11, 2, -2, 2, 0, 0, -3, 5)"
2022/11/28/23:08:17.743978,"(8, 0, -7, -9, -6, 1, 14, 1)"
2022/11/28/23:08:17.744014,"(-36, 4, 4, 0, 0, 2, 2, 1)"
2022/11/28/23:08:17.765676,"(3, -9, -6, 3, 2, 0, -1, 3)"
2022/11/28/23:08:17.765696,"(-1, -9, 5, 1, 0, 0, 1, -5)"
2022/11/28/23:08:17.766447,"(12, 17, 1, 1, 1, -3, -11, 1)"
2022/11/28/23:08:17.766459,"(19, 0, -8, -7, 1, 1, 7, 1)"
2022/11/28/23:08:17.780726,"(-7, -4, 16, 5, -1, -1, 1, 2)"
2022/11/28/23:08:17.780740,"(31, 5, 0, 15, 1, -1, -8, -4)"
2022/11/28/23:08:17.781176,"(-8, -4, -7, -6, -1, -4, -7, -3)"
2022/11/28/23:08:17.781188,"(-12, -3, -5, -3, -3, -2, 4, 9)"
2022/11/28/23:08:17.803151,"(-9, -12, -5, -3, 1, 2, -3, -5)"
2022/11/28/23:08:17.803162,"(17, 10, 1, -4, -1, -1, -3, -1)"
2022/11/28/23:08:17.803917,"(-1, -28, -4, -1, -3, -3, -3, 4)"
2022/11/28/23:08:17.803927,"(15, 32, 15, 4, 0, -7, -16, -16)"
2022/11/28/23:08:17.826991,"(-27, 2, -9, 0, -2, -2, -22, -8)"
2022/11/28/23:08:17.827100,"(-5, 1, -4, -9, 0, 1, 4, -1)"
2022/11/28/23:08:17.827123,"(-12, -5, 8, 9, 1, -1, 2, -1)"
2022/11/28/23:08:17.827131,"(6, -12, -25, -4, 1, 2, 11, 11)"
2022/11/28/23:08:17.841500,"(15, 14, 21, -6, -3, -1, 3, 2)"
2022/11/28/23:08:17.841511,"(-35, -23, 5, 14, 1, -2, -10, -6)"
2022/11/28/23:08:17.841515,"(-5, 35, -5, -19, 0, -1, -6, -2)"
2022/11/28/23:08:17.841544,"(29, -2, 12, 5, -3, -2, 3, -3)"
2022/11/28/23:08:17.863043,"(-6, 0, -6, 4, 1, 0, 1, 5)"
2022/11/28/23:08:17.863452,"(17, -3, -8, -14, -5, 2, 5, 1)"
2022/11/28/23:08:17.863819,"(7, -1, -2, 2, 0, -5, -8, -5)"
2022/11/28/23:08:17.863839,"(-20, -8, -4, 6, -1, 3, 7, 2)"
2022/11/28/23:08:17.885938,"(4, -12, -13, -15, -2, -1, 6, 2)"
2022/11/28/23:08:17.885966,"(-6, 2, -1, -2, -3, 0, 5, 1)"
2022/11/28/23:08:17.886618,"(1, -2, 2, -2, -4, -2, -5, 0)"
2022/11/28/23:08:17.886638,"(28, 7, -1, 0, 4, 3, -10, -5)"
2022/11/28/23:08:17.900594,"(-54, -17, -13, -22, -4, -3, -15, -6)"
2022/11/28/23:08:17.900618,"(1, 7, 0, 18, 0, -1, 17, -7)"
2022/11/28/23:08:17.901300,"(2, 6, 14, -11, 1, 0, -4, -10)"
2022/11/28/23:08:17.901310,"(6, -1, 5, 2, -1, -1, -7, 5)"
2022/11/28/23:08:17.923534,"(25, -12, -6, 1, -2, -1, -5, 3)"
2022/11/28/23:08:17.923544,"(-11, 3, -4, -19, -1, 0, -1, -16)"
2022/11/28/23:08:17.923863,"(-7, -7, -11, 6, -2, 0, -7, 7)"
2022/11/28/23:08:17.923874,"(-8, -7, 18, 3, 0, 1, 16, 0)"
2022/11/28/23:08:17.945904,"(22, 10, -2, 3, 1, -2, -2, -5)"
2022/11/28/23:08:17.946126,"(4, -1, 0, -8, -1, -4, -8, 3)"
2022/11/28/23:08:17.946980,"(-7, -4, -2, 5, -2, -2, 6, 3)"
2022/11/28/23:08:17.946999,"(-20, 0, -10, -5, 0, -3, -5, -4)"
2022/11/28/23:08:17.960590,"(8, -6, -4, 0, -1, 0, 3, -1)"
2022/11/28/23:08:17.960785,"(10, 1, 9, 1, 1, 0, -5, 5)"
2022/11/28/23:08:17.961742,"(12, 12, 1, -4, -5, -1, -2, -2)"
2022/11/28/23:08:17.961762,"(-18, -20, -14, -1, 0, -2, -1, -3)"
2022/11/28/23:08:17.983241,"(0, 5, 9, 2, 2, 1, 5, -2)"
2022/11/28/23:08:17.983268,"(1, -9, -4, 10, 0, -2, -9, -3)"
2022/11/28/23:08:17.984099,"(3, -1, 3, 0, -2, -1, 2, 5)"
2022/11/28/23:08:17.984115,"(10, 6, -3, -1, -5, -3, -6, -13)"
2022/11/28/23:08:18.005505,"(-1, -4, -9, -7, -4, -3, 0, -4)"
2022/11/28/23:08:18.005522,"(-4, 4, 0, 9, 1, 2, 0, 8)"
2022/11/28/23:08:18.006624,"(11, -2, 7, -5, -2, -7, -14, 1)"
2022/11/28/23:08:18.006639,"(-10, -16, 0, 6, 2, 1, 3, 5)"
2022/11/28/23:08:18.020133,"(8, 12, -2, -1, 1, -1, -3, -16)"
2022/11/28/23:08:18.020144,"(-12, -19, -6, -6, -2, 1, 3, 2)"
2022/11/28/23:08:18.029139,"(-9, -4, -5, -8, -2, 0, 0, -7)"
2022/11/28/23:08:18.029164,"(-10, -1, -22, -7, -2, -2, 7, 1)"
2022/11/28/23:08:18.043803,"(1, 0, 16, 9, 0, -1, -12, -1)"
2022/11/28/23:08:18.043827,"(3, 30, 14, -9, 0, -3, 0, -3)"
2022/11/28/23:08:18.044368,"(6, -20, -7, 15, 13, 2, 3, 7)"
2022/11/28/23:08:18.044382,"(-15, 10, 5, -10, 4, -2, -1, -5)"
2022/11/28/23:08:18.065590,"(36, 3, -28, 10, 1, 4, 9, 10)"
2022/11/28/23:08:18.065617,"(-71, -1, 22, -7, -4, 0, -3, 3)"
2022/11/28/23:08:18.066371,"(5, -5, -5, 10, 0, 1, -1, -7)"
2022/11/28/23:08:18.066401,"(34, -12, -5, -11, -4, -2, -1, 2)"
2022/11/28/23:08:18.080571,"(-36, -3, 0, 7, 4, -1, -7, 4)"
2022/11/28/23:08:18.080596,"(5, 8, -21, -11, -6, -2, -6, -17)"
2022/11/28/23:08:18.081424,"(20, 30, 5, -16, -5, -2, 12, -4)"
2022/11/28/23:08:18.081445,"(-24, -44, 5, 30, -1, 0, -20, -23)"
2022/11/28/23:08:18.104061,"(30, 11, 5, -9, -1, -1, 12, 9)"
2022/11/28/23:08:18.104073,"(-14, -3, -13, 7, 1, 1, 5, 14)"
2022/11/28/23:08:18.104078,"(-14, -18, 1, -13, -4, -1, -5, -1)"
2022/11/28/23:08:18.104107,"(26, 14, 2, -7, -2, 1, 11, 7)"
2022/11/28/23:08:18.126425,"(-3, 13, 2, 16, -1, -3, -3, 6)"
2022/11/28/23:08:18.127090,"(11, -31, 10, -14, 0, -1, -5, 8)"
2022/11/28/23:08:18.127109,"(6, -5, -6, 6, -1, 0, -3, -3)"
2022/11/28/23:08:18.127126,"(-14, 21, -7, -9, -2, 1, 4, 6)"
2022/11/28/23:08:18.139900,"(7, -5, 11, 1, -4, -1, -3, -1)"
2022/11/28/23:08:18.139910,"(9, -2, -11, 1, 3, -2, 0, -12)"
2022/11/28/23:08:18.147511,"(4, 2, 0, 1, -4, -1, -1, 18)"
2022/11/28/23:08:18.147536,"(-18, 1, 1, -5, 0, 0, 6, -2)"
2022/11/28/23:08:18.162849,"(-11, -2, -18, -16, -4, -2, -13, -7)"
2022/11/28/23:08:18.163591,"(17, 9, -3, -2, 1, 1, 9, -6)"
2022/11/28/23:08:18.163812,"(-3, -1, 16, 7, 2, 2, 0, 2)"
2022/11/28/23:08:18.163825,"(-11, -4, 7, 15, 1, -1, 5, 1)"
2022/11/28/23:08:18.185899,"(0, 8, 1, -2, -2, 0, 4, 0)"
2022/11/28/23:08:18.185923,"(29, 1, 1, 2, 0, -3, -12, 5)"
2022/11/28/23:08:18.186577,"(-59, -4, -4, 0, 3, 0, -4, -1)"
2022/11/28/23:08:18.186587,"(1, 2, -12, -7, -3, -1, -3, -13)"
2022/11/28/23:08:18.200161,"(6, -14, -16, -21, -6, -1, 6, 1)"
2022/11/28/23:08:18.200204,"(7, 0, 9, 19, 4, -5, -10, 0)"
2022/11/28/23:08:18.207504,"(5, 2, -1, -6, -2, 4, 10, -6)"
2022/11/28/23:08:18.207523,"(-1, 9, 4, 1, -6, -7, -22, 10)"
2022/11/28/23:08:18.222310,"(-13, -11, 10, 7, 11, 2, -1, -11)"
2022/11/28/23:08:18.222315,"(0, 7, -6, -16, -7, -1, 2, -2)"
2022/11/28/23:08:18.222972,"(-1, -7, -9, 12, 4, -4, -9, -4)"
2022/11/28/23:08:18.222981,"(-3, 0, 7, -4, 0, 0, 3, 7)"
2022/11/28/23:08:18.245811,"(3, -2, -2, -4, -2, 2, 5, 1)"
2022/11/28/23:08:18.245835,"(3, 1, -4, 1, -8, -8, -9, -6)"
2022/11/28/23:08:18.246600,"(9, 5, 1, 1, 6, 5, -13, -4)"
2022/11/28/23:08:18.246611,"(-6, -4, -7, -5, -3, -2, 10, 5)"
2022/11/28/23:08:18.259610,"(-1, 4, 9, 5, 1, -1, -2, -19)"
2022/11/28/23:08:18.259622,"(-5, -4, -3, -3, -2, 0, -2, -1)"
2022/11/28/23:08:18.267226,"(0, 3, 2, -8, -7, -4, 5, 10)"
2022/11/28/23:08:18.267239,"(4, -2, 0, 6, 3, 0, -7, -12)"
2022/11/28/23:08:18.282820,"(6, -7, -9, -6, -3, -4, 1, 2)"
2022/11/28/23:08:18.282845,"(-25, -11, -1, 16, 1, -1, -6, -11)"
2022/11/28/23:08:18.283649,"(3, 0, 8, 6, 0, 3, 12, 8)"
2022/11/28/23:08:18.283666,"(8, 9, 4, -8, -3, -5, 17, 1)"
2022/11/28/23:08:18.305458,"(-20, -7, -6, -1, -5, -3, -4, -1)"
2022/11/28/23:08:18.305583,"(12, -7, -10, -17, -5, 2, 3, 4)"
2022/11/28/23:08:18.306337,"(8, 2, -8, 1, 2, -1, -3, -13)"
2022/11/28/23:08:18.306349,"(-17, 0, -5, -2, 0, 0, -4, 9)"
2022/11/28/23:08:18.319767,"(-1, 5, 3, -1, -2, -1, -4, -8)"
2022/11/28/23:08:18.319790,"(6, -9, 0, 15, 8, -1, 0, -6)"
2022/11/28/23:08:18.327727,"(1, -4, -6, -9, -15, -5, 12, 27)"
2022/11/28/23:08:18.327756,"(3, 1, 5, 5, 4, 6, -1, 9)"
2022/11/28/23:08:18.343129,"(-8, -3, -6, -3, -3, 0, 3, -11)"
2022/11/28/23:08:18.343237,"(-3, 1, 1, -12, -7, -2, -17, -1)"
2022/11/28/23:08:18.344246,"(24, 3, 2, -1, 0, 5, 12, 2)"
2022/11/28/23:08:18.344269,"(-53, -4, 1, 0, -5, -10, -15, -23)"
2022/11/28/23:08:18.365946,"(11, -3, 4, 11, 5, 3, 9, 30)"
2022/11/28/23:08:18.366046,"(-14, -1, -11, -5, -2, -2, -5, -1)"
2022/11/28/23:08:18.366643,"(11, 15, 13, -7, -1, -3, -6, -15)"
2022/11/28/23:08:18.366654,"(13, -6, -18, -15, -7, -2, -11, 5)"
2022/11/28/23:08:18.388422,"(-12, -17, 6, 12, 5, 1, 4, -14)"
2022/11/28/23:08:18.388443,"(9, 23, 8, -1, 4, -1, -2, -3)"
2022/11/28/23:08:18.389117,"(-14, -28, -7, -1, -2, -5, 0, 6)"
2022/11/28/23:08:18.389136,"(12, 15, -31, -20, -1, 0, -2, -1)"
2022/11/28/23:08:18.403528,"(-4, 17, 29, 14, -6, -3, -6, 8)"
2022/11/28/23:08:18.403561,"(6, 3, -10, -9, 1, 2, 8, 1)"
2022/11/28/23:08:18.404248,"(16, -27, -2, 3, 0, 1, -1, -7)"
2022/11/28/23:08:18.404256,"(-25, -12, 12, 9, 1, 4, 4, 14)"
2022/11/28/23:08:18.434160,"(-10, -13, -21, -22, -6, -3, -7, -20)"
2022/11/28/23:08:18.434200,"(9, 4, 4, -3, -1, -1, 1, 5)"
2022/11/28/23:08:18.435037,"(-11, 5, -4, 10, -3, -4, -14, -13)"
2022/11/28/23:08:18.435268,"(17, 3, -1, -1, 4, 4, 14, 5)"
2022/11/28/23:08:18.448031,"(37, 12, 1, -1, -1, 0, -2, 11)"
2022/11/28/23:08:18.448048,"(-36, -5, 6, 2, 0, 3, 4, -3)"
2022/11/28/23:08:18.448971,"(-18, -14, -17, -8, -1, -3, -11, -8)"
2022/11/28/23:08:18.449000,"(49, 20, -3, -10, -2, -3, -9, -1)"
2022/11/28/23:08:18.463250,"(-5, -10, 17, 13, -1, 2, 3, 4)"
2022/11/28/23:08:18.463277,"(-14, -27, -1, 9, -1, -1, -1, -8)"
2022/11/28/23:08:18.464045,"(0, 42, -6, -12, -2, -3, -7, -3)"
2022/11/28/23:08:18.464070,"(-11, 3, 11, 9, 0, 0, 5, 2)"
2022/11/28/23:08:18.485719,"(-7, -29, -18, -11, -3, -4, -6, -3)"
2022/11/28/23:08:18.485726,"(22, 4, -1, -4, -4, -2, 12, 13)"
2022/11/28/23:08:18.486570,"(-31, 3, -4, 3, -1, -3, -6, -15)"
2022/11/28/23:08:18.486583,"(13, -5, -4, -5, -1, -2, 1, 0)"
2022/11/28/23:08:18.508539,"(15, 11, 0, -3, -5, 0, 0, 1)"
2022/11/28/23:08:18.508568,"(-22, -35, -5, 1, 0, 3, 3, 1)"
2022/11/28/23:08:18.509241,"(-9, 4, 5, -5, 0, -1, 5, 7)"
2022/11/28/23:08:18.509255,"(-2, -11, -4, -4, -2, -2, -9, -3)"
2022/11/28/23:08:18.523650,"(-2, -3, -4, 3, -1, 2, 7, -6)"
2022/11/28/23:08:18.523683,"(29, 14, -14, -8, 1, 0, 4, 11)"
2022/11/28/23:08:18.524336,"(23, -1, 14, 15, 1, -1, 5, 3)"
2022/11/28/23:08:18.524348,"(-47, -6, 11, 6, 1, 2, -6, -18)"
2022/11/28/23:08:18.546007,"(-5, 3, -12, -13, -1, 0, -2, 9)"
2022/11/28/23:08:18.546034,"(-2, 13, 8, 1, -1, -5, -13, -17)"
2022/11/28/23:08:18.546889,"(6, -7, -1, -13, -4, -3, -8, -4)"
2022/11/28/23:08:18.546900,"(28, 21, 6, 16, 3, -1, 7, 7)"
2022/11/28/23:08:18.568013,"(-14, -12, 5, -1, -1, -2, -1, -4)"
2022/11/28/23:08:18.568043,"(5, 2, -14, -18, -7, -2, -4, 0)"
2022/11/28/23:08:18.568815,"(-13, -17, -3, 5, -3, 1, 3, 6)"
2022/11/28/23:08:18.568823,"(-8, 8, 8, 0, -1, -1, -5, -16)"
2022/11/28/23:08:18.583090,"(1, 3, -14, -4, -4, -3, 2, 11)"
2022/11/28/23:08:18.583137,"(25, 1, 14, 8, 1, -2, 0, -3)"
2022/11/28/23:08:18.583952,"(-61, -6, -6, -17, -2, -1, -6, -12)"
2022/11/28/23:08:18.583969,"(15, -12, -7, 3, -1, 0, 2, 5)"
2022/11/28/23:08:18.605779,"(-20, -6, 9, 4, 2, -1, -6, -12)"
2022/11/28/23:08:18.605796,"(-1, 2, -6, -5, -2, 0, -1, 2)"
2022/11/28/23:08:18.606606,"(18, 24, 10, -2, 2, 0, 7, 9)"
2022/11/28/23:08:18.606637,"(10, -27, -12, 2, -3, -3, -5, 6)"
2022/11/28/23:08:18.628474,"(-7, -2, 1, -9, 1, -2, -10, 3)"
2022/11/28/23:08:18.628505,"(-18, 3, 1, 8, 2, 0, -1, -29)"
2022/11/28/23:08:18.629169,"(6, 11, -6, -1, -2, -1, -2, -11)"
2022/11/28/23:08:18.629188,"(17, -2, 1, -10, -5, -6, -1, 1)"
2022/11/28/23:08:18.643007,"(-1, 13, -3, 4, 2, 1, 1, -1)"
2022/11/28/23:08:18.643033,"(9, 11, 7, -16, 0, 0, -5, 3)"
2022/11/28/23:08:18.643888,"(9, -10, 2, 20, 1, -3, -3, -7)"
2022/11/28/23:08:18.643903,"(-15, 2, 7, 8, 6, 3, 4, 3)"
2022/11/28/23:08:18.665596,"(-3, -8, 7, -4, 0, -2, -2, -5)"
2022/11/28/23:08:18.665750,"(-10, -23, -9, 5, 0, -2, -5, 8)"
2022/11/28/23:08:18.666462,"(27, 18, -4, -14, -1, 0, 4, 5)"
2022/11/28/23:08:18.666473,"(7, 5, 10, 2, 0, -1, 1, -9)"
2022/11/28/23:08:18.688191,"(-2, 3, 2, -1, 2, -3, -1, -1)"
2022/11/28/23:08:18.688219,"(-1, -2, 1, 4, -2, -1, 1, 5)"
2022/11/28/23:08:18.688860,"(2, -10, -6, 1, -1, 0, -5, 4)"
2022/11/28/23:08:18.688874,"(0, -29, -15, -7, -6, -4, -2, 1)"
2022/11/28/23:08:18.702982,"(-6, 18, -6, -7, 1, -1, 1, -2)"
2022/11/28/23:08:18.703008,"(-8, 10, 13, 7, 0, 0, 1, -2)"
2022/11/28/23:08:18.703771,"(8, -9, -8, 8, 2, 1, 0, -2)"
2022/11/28/23:08:18.703780,"(-13, 2, 16, -8, -2, -2, -2, 2)"
2022/11/28/23:08:18.725603,"(3, -10, -6, -8, -2, -2, -11, -10)"
2022/11/28/23:08:18.725632,"(30, 8, -16, 10, -4, 0, 5, 11)"
2022/11/28/23:08:18.726153,"(-56, -10, 0, 4, 4, -1, -1, 3)"
2022/11/28/23:08:18.726161,"(-1, 11, 9, 3, -3, 2, 3, -18)"
2022/11/28/23:08:18.748423,"(30, 17, -8, 5, -1, -3, 0, 15)"
2022/11/28/23:08:18.748457,"(-18, -47, 5, 9, 3, 1, 2, -4)"
2022/11/28/23:08:18.749161,"(15, 13, 4, -11, -3, -5, -4, -2)"
2022/11/28/23:08:18.749171,"(-6, 1, -14, -2, -4, 0, 0, -3)"
2022/11/28/23:08:18.762981,"(-8, -8, -6, 1, 0, -2, 8, 3)"
2022/11/28/23:08:18.763009,"(4, 23, 4, -6, -1, -1, -13, 3)"
2022/11/28/23:08:18.763784,"(7, -15, 1, 1, 1, 1, 9, 2)"
2022/11/28/23:08:18.763802,"(-3, -3, 6, 3, 1, 2, 1, 15)"
2022/11/28/23:08:18.785543,"(3, 5, -4, -5, -4, -1, 2, -20)"
2022/11/28/23:08:18.785559,"(-4, -20, -2, -2, -1, -1, -3, -7)"
2022/11/28/23:08:18.786279,"(3, 7, -19, -13, -4, 0, -7, 0)"
2022/11/28/23:08:18.786293,"(11, 14, 12, 11, -3, -4, -7, -13)"
2022/11/28/23:08:18.808538,"(-12, -1, 3, 1, 1, 2, 5, 14)"
2022/11/28/23:08:18.808620,"(-6, 5, 4, -7, 1, -3, -3, 0)"
2022/11/28/23:08:18.809286,"(-6, -16, -3, -13, -3, -1, -4, -15)"
2022/11/28/23:08:18.809393,"(19, -4, -13, 8, 0, -1, -4, 3)"
2022/11/28/23:08:18.822970,"(-16, -3, 2, -1, 2, 1, -1, -9)"
2022/11/28/23:08:18.822987,"(-6, -1, 3, 2, -1, -1, 1, 1)"
2022/11/28/23:08:18.823756,"(17, 6, 0, -4, -1, -1, 1, 12)"
2022/11/28/23:08:18.823765,"(-8, -12, -12, -8, -1, -1, -1, 3)"
2022/11/28/23:08:18.846133,"(9, 3, -9, -6, -5, -4, -7, -3)"
2022/11/28/23:08:18.846160,"(-18, 2, 3, 10, 0, 1, 1, 0)"
2022/11/28/23:08:18.846603,"(-2, 5, 13, 8, 1, -1, 1, 0)"
2022/11/28/23:08:18.846613,"(-16, 5, -10, -12, -2, -1, 2, 3)"
2022/11/28/23:08:18.867851,"(-7, -19, 6, 7, 3, 1, 0, 1)"
2022/11/28/23:08:18.867871,"(11, 2, -21, -20, -2, -1, 2, -1)"
2022/11/28/23:08:18.868640,"(9, 5, 13, 18, 1, -3, -1, 6)"
2022/11/28/23:08:18.868651,"(0, -5, 4, -5, 0, 1, 0, -2)"
2022/11/28/23:08:18.882899,"(31, 10, 9, -2, -3, 0, -2, 3)"
2022/11/28/23:08:18.882912,"(-17, -4, -8, -2, -5, -1, -2, -15)"
2022/11/28/23:08:18.883709,"(6, -9, 2, -5, 4, 1, -3, 8)"
2022/11/28/23:08:18.883717,"(-10, 9, -10, -13, -2, -1, -1, -2)"
2022/11/28/23:08:18.905604,"(9, -9, -5, 9, -2, -2, 6, 20)"
2022/11/28/23:08:18.905868,"(13, 8, 8, 4, -7, 0, 3, -1)"
2022/11/28/23:08:18.906501,"(-5, -6, -8, 5, -1, -2, -3, -1)"
2022/11/28/23:08:18.906526,"(-13, -2, 3, 1, 1, -2, -2, -7)"
2022/11/28/23:08:18.928159,"(-8, -4, -7, -24, -3, 2, 8, 6)"
2022/11/28/23:08:18.928170,"(-6, 4, 1, 18, -1, -4, -17, -10)"
2022/11/28/23:08:18.928981,"(3, -11, 2, -5, -1, 2, 5, -12)"
2022/11/28/23:08:18.928997,"(-5, 3, -5, -6, -5, -1, 2, 4)"
2022/11/28/23:08:18.942947,"(-11, -4, 2, 2, -1, -1, 5, 4)"
2022/11/28/23:08:18.942974,"(-13, 3, -5, -8, -2, -3, 3, -4)"
2022/11/28/23:08:18.943863,"(2, 3, 0, 0, 3, 6, -1, -5)"
2022/11/28/23:08:18.943882,"(1, -6, 2, 3, 3, -3, -6, -1)"
2022/11/28/23:08:18.966370,"(-9, -4, -5, 1, -1, 0, -14, -8)"
2022/11/28/23:08:18.966399,"(4, 3, -1, -8, 4, 3, 24, 7)"
2022/11/28/23:08:18.966426,"(-6, -6, -7, -2, -6, -3, -12, -2)"
2022/11/28/23:08:18.966434,"(-3, -3, 0, 2, -1, 1, 4, 8)"
2022/11/28/23:08:18.988295,"(-9, -1, 0, 1, -4, -5, 2, -2)"
2022/11/28/23:08:18.988418,"(7, 2, -1, -4, 2, -4, -17, 2)"
2022/11/28/23:08:18.988938,"(29, -3, -4, -10, -7, 2, 8, -9)"
2022/11/28/23:08:18.988951,"(-77, -12, -4, -3, -3, -12, 11, 8)"
2022/11/28/23:08:19.003309,"(11, 3, 1, 3, 3, 11, -6, -5)"
2022/11/28/23:08:19.003342,"(-4, -2, -1, -5, -3, 7, -6, 4)"
2022/11/28/23:08:19.004069,"(20, 7, -1, 0, 5, 36, 0, -3)"
2022/11/28/23:08:19.004082,"(26, -1, 1, 5, -13, -45, 10, 6)"
2022/11/28/23:08:19.025626,"(0, 3, 1, 0, 3, 7, -6, -20)"
2022/11/28/23:08:19.025813,"(-9, -3, -3, -13, -11, -16, -5, -3)"
2022/11/28/23:08:19.026674,"(-17, 1, 1, 15, 14, 19, -7, 5)"
2022/11/28/23:08:19.026684,"(16, 0, -1, -1, 3, 13, -3, -9)"
2022/11/28/23:08:19.047944,"(-19, -8, -4, -4, -5, -14, -1, -6)"
2022/11/28/23:08:19.047955,"(25, 6, 3, 5, 6, 17, 24, 44)"
2022/11/28/23:08:19.048641,"(-16, -4, -2, -10, -11, -23, 2, 1)"
2022/11/28/23:08:19.048652,"(19, 3, 1, 14, 7, 9, -3, 2)"
2022/11/28/23:08:19.063580,"(-17, -1, -1, 2, 0, -7, 2, 3)"
2022/11/28/23:08:19.063599,"(-16, -6, -5, -5, -1, 2, 4, -2)"
2022/11/28/23:08:19.064179,"(-1, 2, 0, 0, -4, -11, 1, -12)"
2022/11/28/23:08:19.064206,"(6, -6, -1, -8, -2, -1, -4, 0)"
2022/11/28/23:08:19.085490,"(4, 1, 1, 1, 1, 11, -4, -1)"
2022/11/28/23:08:19.085505,"(16, -4, -2, -4, -1, -4, 3, -2)"
2022/11/28/23:08:19.086327,"(-58, 1, -2, 0, -6, -15, 1, -2)"
2022/11/28/23:08:19.086346,"(9, 4, 1, -2, 0, 11, -9, -9)"
2022/11/28/23:08:19.108353,"(16, 3, 6, 6, 3, -3, 7, 13)"
2022/11/28/23:08:19.108371,"(-16, -4, -5, -4, -3, -4, -10, -12)"
2022/11/28/23:08:19.109003,"(6, -3, -3, -2, -1, -8, -1, 2)"
2022/11/28/23:08:19.109027,"(3, 1, -1, -1, 2, 9, -3, -2)"
2022/11/28/23:08:19.122936,"(-9, -4, -4, 0, -3, -3, 2, -3)"
2022/11/28/23:08:19.123040,"(11, -3, 1, 3, 0, -5, -3, -5)"
2022/11/28/23:08:19.123834,"(-8, 5, 0, -2, -2, 0, -5, -1)"
2022/11/28/23:08:19.123847,"(0, 2, -3, 4, 6, 3, -7, 2)"
2022/11/28/23:08:19.145961,"(4, -2, -4, -2, -6, -7, -7, -5)"
2022/11/28/23:08:19.145988,"(3, -13, 6, 5, 2, 3, -4, -13)"
2022/11/28/23:08:19.146625,"(18, -1, -1, -1, -1, -4, -1, 1)"
2022/11/28/23:08:19.146646,"(-52, -19, -20, -8, -2, 0, 0, -4)"
2022/11/28/23:08:19.168168,"(-9, 15, 26, 1, -1, -3, -3, -21)"
2022/11/28/23:08:19.168202,"(11, 32, 7, -1, 4, 0, -1, 6)"
2022/11/28/23:08:19.169195,"(-5, 19, 4, 4, 0, 0, -4, 1)"
2022/11/28/23:08:19.169216,"(7, -21, -7, -5, -4, -2, -1, -1)"
2022/11/28/23:08:19.182328,"(-10, -8, -12, -3, -1, 1, 0, -4)"
2022/11/28/23:08:19.182341,"(-2, -23, 2, 2, -1, -2, -9, -13)"
2022/11/28/23:08:19.191195,"(26, 15, -4, -8, -8, -5, 2, 7)"
2022/11/28/23:08:19.191235,"(8, -29, 3, -2, -2, 2, 1, -10)"
2022/11/28/23:08:19.205665,"(-5, 22, 11, 2, 2, -1, -4, 11)"
2022/11/28/23:08:19.205673,"(9, 11, -5, -1, -2, -2, 7, 3)"
2022/11/28/23:08:19.206540,"(1, -5, -3, -2, 2, -2, 2, 1)"
2022/11/28/23:08:19.206566,"(13, 1, -2, 1, 0, 1, -2, -1)"
2022/11/28/23:08:19.228469,"(2, -14, -13, -3, -5, 0, 7, -4)"
2022/11/28/23:08:19.228566,"(32, 3, 1, 1, 2, -2, -28, 3)"
2022/11/28/23:08:19.229807,"(-57, -6, 7, 1, -2, -2, -5, -18)"
2022/11/28/23:08:19.229818,"(7, 3, 2, 3, 2, 3, -2, 13)"
2022/11/28/23:08:19.242632,"(19, 3, -3, -2, -1, 0, 11, 25)"
2022/11/28/23:08:19.242667,"(12, -10, -6, 0, -1, 2, 8, 0)"
2022/11/28/23:08:19.250529,"(-1, 2, 0, -4, -3, -6, -13, -41)"
2022/11/28/23:08:19.250557,"(1, 43, 4, -2, -3, -1, 5, 5)"
2022/11/28/23:08:19.266114,"(-7, -25, -10, -3, 2, -2, -3, 2)"
2022/11/28/23:08:19.266236,"(-25, -3, -11, -2, 0, 1, 7, 15)"
2022/11/28/23:08:19.267055,"(26, -16, 8, -1, -1, 4, 7, 6)"
2022/11/28/23:08:19.267066,"(9, 6, 4, 3, 1, 1, 4, -11)"
2022/11/28/23:08:19.288352,"(26, -6, -6, -3, -4, -2, -8, 7)"
2022/11/28/23:08:19.288379,"(-16, 9, -4, -3, -5, -2, 6, -16)"
2022/11/28/23:08:19.289054,"(5, -5, -7, 0, 1, -2, 0, 11)"
2022/11/28/23:08:19.289096,"(23, 9, 2, -3, -1, -3, -10, -1)"
2022/11/28/23:08:19.302188,"(8, -4, -2, 3, 3, 3, 4, -7)"
2022/11/28/23:08:19.302208,"(-15, -5, 3, 5, 0, -5, -3, -12)"
2022/11/28/23:08:19.310681,"(14, 2, -3, 2, -1, 0, -2, -6)"
2022/11/28/23:08:19.310778,"(-3, -19, -1, -3, -1, 5, 18, 38)"
2022/11/28/23:08:19.325643,"(-12, 7, 0, -2, 0, 1, -23, 4)"
2022/11/28/23:08:19.325690,"(7, -4, 1, -4, -3, 4, 8, 7)"
2022/11/28/23:08:19.326422,"(-8, 0, -4, -5, -1, -6, -3, -4)"
2022/11/28/23:08:19.326438,"(-12, 3, -1, 0, 1, -2, 4, -12)"
2022/11/28/23:08:19.348208,"(-8, -3, -1, -2, -1, -2, -6, -12)"
2022/11/28/23:08:19.348230,"(-13, -4, -4, -2, -2, 4, 16, 21)"
2022/11/28/23:08:19.348978,"(2, -4, -3, -1, -3, 0, -2, 3)"
2022/11/28/23:08:19.348991,"(-6, 3, 1, -1, -1, -2, -4, 3)"
2022/11/28/23:08:19.364886,"(-7, -1, 0, -1, -1, 0, 3, -2)"
2022/11/28/23:08:19.364902,"(3, -3, 0, -3, -2, -5, 8, -15)"
2022/11/28/23:08:19.370448,"(-9, -2, 0, 1, 1, -4, -13, -37)"
2022/11/28/23:08:19.370471,"(-4, -5, -2, -1, -2, -1, -1, -5)"
2022/11/28/23:08:19.385806,"(27, 15, -11, -2, -2, 0, 9, -8)"
2022/11/28/23:08:19.385832,"(-49, -24, 8, 1, 3, 0, -4, 6)"
2022/11/28/23:08:19.386398,"(41, -2, 13, 4, -2, -1, -1, 7)"
2022/11/28/23:08:19.386409,"(-20, 3, -3, -1, 0, 0, -10, -11)"
2022/11/28/23:08:19.408425,"(-5, 0, -1, -2, 0, -2, 0, -1)"
2022/11/28/23:08:19.408452,"(14, 11, -5, -1, 1, -3, -20, 8)"
2022/11/28/23:08:19.415845,"(6, -6, -7, 0, 0, 1, 6, 21)"
2022/11/28/23:08:19.416033,"(7, -6, 2, -2, -2, 0, -3, -7)"
2022/11/28/23:08:19.422417,"(-8, 9, 1, 0, -2, -1, -3, 4)"
2022/11/28/23:08:19.422429,"(0, -10, -2, -3, -1, 0, -6, -5)"
2022/11/28/23:08:19.430129,"(-16, -5, -1, -2, -1, 0, 7, 0)"
2022/11/28/23:08:19.430146,"(12, 3, -1, 3, 0, -2, -8, 5)"
2022/11/28/23:08:19.445816,"(-16, 0, -1, -3, -2, -4, -1, -15)"
2022/11/28/23:08:19.445854,"(39, 2, -1, 1, -1, -2, -4, -5)"
2022/11/28/23:08:19.446594,"(-1, 3, 0, 1, 2, 2, -12, -6)"
2022/11/28/23:08:19.446606,"(-13, -1, 0, -2, -3, -2, -3, -23)"
2022/11/28/23:08:19.468163,"(3, 0, 2, 2, -2, -3, -8, -16)"
2022/11/28/23:08:19.468181,"(3, 8, -1, 0, -3, -1, -8, -5)"
2022/11/28/23:08:19.469013,"(-4, -6, -4, -5, -1, 3, 13, 16)"
2022/11/28/23:08:19.469027,"(-3, 1, 2, -1, 0, -1, 3, 1)"
2022/11/28/23:08:19.482653,"(-2, -10, -1, 0, -4, 0, 7, -9)"
2022/11/28/23:08:19.482667,"(-8, 6, -2, -2, 0, 0, -1, 3)"
2022/11/28/23:08:19.490177,"(-4, -3, -5, -4, -2, -3, -5, -2)"
2022/11/28/23:08:19.490201,"(9, 2, 3, 1, 0, -1, -4, 8)"
2022/11/28/23:08:19.505459,"(-15, -7, -1, -4, -2, -2, 3, -2)"
2022/11/28/23:08:19.505483,"(-15, 2, -3, -2, 0, 2, 7, -8)"
2022/11/28/23:08:19.506211,"(-2, 1, 0, -1, -4, -1, -2, 6)"
2022/11/28/23:08:19.506232,"(4, 0, -1, -2, -3, -2, -2, -2)"
2022/11/28/23:08:19.528489,"(30, -3, -1, 1, 1, -2, 0, 7)"
2022/11/28/23:08:19.528507,"(-39, 4, -2, -2, -2, 6, -2, -6)"
2022/11/28/23:08:19.529321,"(-4, -10, -4, -2, 0, -11, -7, -5)"
2022/11/28/23:08:19.529334,"(1, -11, -3, -2, -3, 1, -3, 0)"
2022/11/28/23:08:19.550855,"(-13, 4, 1, 0, 0, -1, -5, 1)"
2022/11/28/23:08:19.550889,"(17, 4, -3, -1, -2, 1, 5, 1)"
2022/11/28/23:08:19.551693,"(2, -9, 2, 0, 0, 2, 3, -8)"
2022/11/28/23:08:19.551719,"(-10, 8, 6, -2, -1, 2, 3, -2)"
2022/11/28/23:08:19.565232,"(-12, -9, -2, -2, -2, -1, -1, 1)"
2022/11/28/23:08:19.565456,"(14, 0, -6, -3, -4, -5, -1, 2)"
2022/11/28/23:08:19.566291,"(-16, 4, -1, 4, 0, 0, 3, 7)"
2022/11/28/23:08:19.566314,"(5, -4, -3, 0, 0, -2, 1, -5)"
2022/11/28/23:08:19.588104,"(21, 1, -1, -1, 0, 2, 3, 14)"
2022/11/28/23:08:19.588115,"(-35, -7, -4, -1, -2, -4, -5, -9)"
2022/11/28/23:08:19.588982,"(14, 4, -1, -2, -1, -1, -8, 2)"
2022/11/28/23:08:19.588994,"(-9, -5, -2, -1, -2, -1, 2, -4)"
2022/11/28/23:08:19.611340,"(7, 4, -4, -2, -1, 1, 3, 8)"
2022/11/28/23:08:19.611377,"(0, 1, 2, -2, -2, -2, -4, -12)"
2022/11/28/23:08:19.611794,"(-13, -2, 0, 1, 0, 1, 0, 4)"
2022/11/28/23:08:19.611812,"(6, -8, -3, -3, -2, -1, 0, 3)"
2022/11/28/23:08:19.625607,"(-29, -6, -6, -5, -4, 0, 0, -14)"
2022/11/28/23:08:19.625619,"(14, -3, 3, 3, 2, -3, -2, 0)"
2022/11/28/23:08:19.626471,"(-5, 6, -3, 0, 0, 2, 1, -1)"
2022/11/28/23:08:19.626488,"(7, 16, 10, 4, 0, 3, -4, -1)"
2022/11/28/23:08:19.648115,"(-4, -13, 0, 0, 0, -5, -15, -16)"
2022/11/28/23:08:19.648165,"(2, -2, -7, -4, -3, -3, 1, -4)"
2022/11/28/23:08:19.649009,"(1, 5, 4, 1, 4, -2, -12, 1)"
2022/11/28/23:08:19.649025,"(-13, -1, -5, -1, -5, 0, 6, -2)"
2022/11/28/23:08:19.671417,"(1, 6, 4, 2, 1, 0, 0, 3)"
2022/11/28/23:08:19.671434,"(10, -3, -1, -2, 0, 0, 3, 3)"
2022/11/28/23:08:19.672363,"(-11, -1, -7, -5, -2, 0, 2, 3)"
2022/11/28/23:08:19.672385,"(1, -9, -6, -5, -1, 0, -6, -4)"
2022/11/28/23:08:19.685568,"(3, 18, 2, 2, 0, 1, 3, 4)"
2022/11/28/23:08:19.685588,"(-1, -17, -8, -1, -1, 0, 0, -3)"
2022/11/28/23:08:19.686249,"(14, -5, 5, -3, -2, -1, 2, 0)"
2022/11/28/23:08:19.686261,"(-5, -1, -1, -1, 0, -2, -8, -8)"
2022/11/28/23:08:19.708625,"(-1, -1, 1, -1, -2, -2, 0, 0)"
2022/11/28/23:08:19.708658,"(-2, 9, 2, 0, 0, -1, 3, 0)"
2022/11/28/23:08:19.709484,"(0, -4, 0, 0, -2, 2, 5, 5)"
2022/11/28/23:08:19.709492,"(-4, 1, -2, -1, -1, -1, 2, -2)"
2022/11/28/23:08:19.731516,"(-5, -3, 1, -1, -1, 1, -3, -7)"
2022/11/28/23:08:19.731530,"(-5, -1, -1, 0, 1, -3, -3, 7)"
2022/11/28/23:08:19.732131,"(-6, -1, -3, -1, -4, 0, 1, -18)"
2022/11/28/23:08:19.732152,"(-7, -11, -8, -5, 2, 0, 6, 6)"
2022/11/28/23:08:19.745705,"(38, -3, 1, 0, 0, -1, -2, 4)"
2022/11/28/23:08:19.745723,"(2, 1, 4, 0, -2, -2, -4, 0)"
2022/11/28/23:08:19.746414,"(-7, 2, -3, -2, -1, 0, 4, 0)"
2022/11/28/23:08:19.746422,"(7, 8, 1, -1, -4, -2, -4, 10)"
2022/11/28/23:08:19.767905,"(5, 4, -2, 0, 1, 0, 1, 5)"
2022/11/28/23:08:19.767923,"(-9, -6, 0, -3, -1, 2, 2, -1)"
2022/11/28/23:08:19.768782,"(2, -12, -1, 3, 1, 0, 1, 2)"
2022/11/28/23:08:19.768802,"(5, 4, 4, -2, -3, -3, -18, -11)"
2022/11/28/23:08:19.790639,"(-6, -3, -1, 0, -3, -2, -1, 2)"
2022/11/28/23:08:19.790650,"(2, 5, -3, -3, -4, 3, 12, 4)"
2022/11/28/23:08:19.791257,"(-4, 6, 0, 4, 1, -5, -21, 7)"
2022/11/28/23:08:19.791265,"(-4, -1, 2, 0, 0, -3, 4, -5)"
2022/11/28/23:08:19.805900,"(-16, -1, -7, -3, -4, -2, -2, -2)"
2022/11/28/23:08:19.805933,"(-3, -8, 2, -2, 6, 0, -1, -3)"
2022/11/28/23:08:19.806543,"(1, 1, -12, -6, -2, 1, 8, -1)"
2022/11/28/23:08:19.806565,"(0, -2, 5, -1, -1, -1, -2, -2)"
2022/11/28/23:08:19.827990,"(0, 7, 0, 4, 1, -2, -5, 0)"
2022/11/28/23:08:19.828008,"(-4, -4, 0, -3, -2, -2, 1, -2)"
2022/11/28/23:08:19.828719,"(5, 2, -1, -2, -2, -1, -6, -13)"
2022/11/28/23:08:19.828736,"(10, 5, -5, 1, 3, 1, -4, 2)"
2022/11/28/23:08:19.851425,"(-7, 0, -4, -4, 1, 0, 7, -1)"
2022/11/28/23:08:19.851452,"(14, -15, 8, 2, -1, -1, -8, 3)"
2022/11/28/23:08:19.852175,"(-32, -1, -2, -1, -2, -1, 0, -4)"
2022/11/28/23:08:19.852330,"(10, -21, -17, -5, -4, -1, 8, -4)"
2022/11/28/23:08:19.865562,"(-5, 14, 19, 2, 0, 0, -2, -5)"
2022/11/28/23:08:19.865673,"(6, 9, -9, 0, -1, -3, -14, -3)"
2022/11/28/23:08:19.866791,"(6, 16, 21, 8, -1, 0, 2, 0)"
2022/11/28/23:08:19.866804,"(0, 2, -18, -5, 0, -2, -1, 2)"
2022/11/28/23:08:19.888054,"(-6, -5, 12, -1, 0, 1, 1, 12)"
2022/11/28/23:08:19.888076,"(74, -14, -6, 0, -1, 1, 6, 12)"
2022/11/28/23:08:19.888968,"(24, -1, 2, -5, -5, -5, -5, -32)"
2022/11/28/23:08:19.888984,"(-26, 8, 12, 19, 2, 2, -4, -1)"
2022/11/28/23:08:19.910738,"(-12, -8, -23, -4, -2, -4, -2, -6)"
2022/11/28/23:08:19.910767,"(13, 14, 26, -2, 0, -2, -8, 3)"
2022/11/28/23:08:19.911602,"(11, 5, -14, -1, 0, 2, 11, 25)"
2022/11/28/23:08:19.911626,"(23, -13, -4, -6, -3, -3, 15, -9)"
2022/11/28/23:08:19.925540,"(3, 2, 12, -1, 3, -1, -22, -12)"
2022/11/28/23:08:19.925555,"(-43, -15, -7, 7, -2, 0, 0, 5)"
2022/11/28/23:08:19.926459,"(22, 23, -2, -6, -1, -1, 2, 18)"
2022/11/28/23:08:19.926485,"(-52, -5, 0, -9, -1, -2, 2, 2)"
2022/11/28/23:08:19.948353,"(0, -13, -11, 11, -6, 1, 11, 1)"
2022/11/28/23:08:19.948493,"(-15, -14, -12, -14, -4, -5, -7, 2)"
2022/11/28/23:08:19.949283,"(-3, -3, 9, 2, 3, 1, -5, -2)"
2022/11/28/23:08:19.949296,"(16, 12, 1, 0, -1, -2, 6, -11)"
2022/11/28/23:08:19.971434,"(6, -12, -2, -6, 1, 0, -6, -9)"
2022/11/28/23:08:19.971457,"(-10, 13, 8, 5, -4, -2, -21, -6)"
2022/11/28/23:08:19.978227,"(-4, -28, -27, -9, -3, -5, -7, -17)"
2022/11/28/23:08:19.978253,"(-2, 5, 3, -2, 1, -1, -8, -1)"
2022/11/28/23:08:19.985473,"(2, 16, -1, 3, -1, -1, 1, 7)"
2022/11/28/23:08:19.985488,"(-4, 5, -8, -1, 0, 0, 8, -28)"
2022/11/28/23:08:19.986047,"(-17, -17, -19, -11, 1, 1, -3, -3)"
2022/11/28/23:08:19.986058,"(18, 31, 45, 13, -1, -1, 1, 18)"
2022/11/28/23:08:20.008277,"(-13, -7, 0, 7, 1, 0, 6, -14)"
2022/11/28/23:08:20.008710,"(17, 7, -6, -4, 0, 1, 3, 27)"
2022/11/28/23:08:20.009097,"(-43, -28, -10, -3, -2, 1, 5, -3)"
2022/11/28/23:08:20.009113,"(51, 6, -7, -5, -2, -2, -8, -36)"
2022/11/28/23:08:20.031027,"(-21, -2, 1, -3, 1, -1, 2, 23)"
2022/11/28/23:08:20.031288,"(3, 1, -2, -1, -1, 1, 2, -10)"
2022/11/28/23:08:20.031740,"(-14, 4, -2, 3, 1, 2, 4, 22)"
2022/11/28/23:08:20.031770,"(7, -10, -6, 0, -1, -1, -7, 26)"
2022/11/28/23:08:20.047434,"(8, -25, -5, -2, 1, -1, 17, -6)"
2022/11/28/23:08:20.047443,"(-34, 15, -1, -4, -3, -2, -7, -12)"
2022/11/28/23:08:20.048098,"(12, 15, -10, -18, -3, -4, -6, 16)"
2022/11/28/23:08:20.048113,"(-25, -11, 12, 11, 1, -2, 5, -28)"
2022/11/28/23:08:20.068565,"(22, 7, 6, 17, 2, 1, -2, 21)"
2022/11/28/23:08:20.068591,"(-22, -4, 0, -3, 2, 0, 10, -16)"
2022/11/28/23:08:20.069062,"(25, -1, 8, 6, -1, 0, 11, 9)"
2022/11/28/23:08:20.069078,"(-23, -12, -20, -15, -4, -3, -22, -8)"
2022/11/28/23:08:20.090823,"(-9, 4, -5, -11, -3, -4, 6, -14)"
2022/11/28/23:08:20.090841,"(41, 0, -3, 2, 0, 1, 9, 102)"
2022/11/28/23:08:20.091410,"(-5, 5, 10, 3, -1, 0, -10, -66)"
2022/11/28/23:08:20.091432,"(-14, -13, -10, -3, 1, -2, 2, -1)"
2022/11/28/23:08:20.105371,"(-11, -1, 0, -6, -2, -1, -9, -16)"
2022/11/28/23:08:20.105391,"(-4, 6, 0, 0, 0, -3, -6, 3)"
2022/11/28/23:08:20.106074,"(19, -4, 2, 0, -1, -1, 11, 60)"
2022/11/28/23:08:20.106087,"(7, 0, 1, 1, 0, 1, -5, -13)"
2022/11/28/23:08:20.128062,"(23, 6, -9, -5, -1, -2, -6, -10)"
2022/11/28/23:08:20.128346,"(-74, -12, -1, -1, -2, -1, 4, -25)"
2022/11/28/23:08:20.128828,"(-5, -1, 15, 7, 1, 1, 0, -37)"
2022/11/28/23:08:20.128850,"(-1, 10, 2, 1, -1, 0, 5, 4)"
2022/11/28/23:08:20.150548,"(26, 4, -1, -7, -2, -2, -10, 31)"
2022/11/28/23:08:20.151000,"(2, -14, -8, 2, -1, -3, -10, -47)"
2022/11/28/23:08:20.151539,"(-16, 0, 0, 2, 0, -1, -5, -39)"
2022/11/28/23:08:20.151608,"(8, -13, -12, -4, -1, -1, 5, 42)"
2022/11/28/23:08:20.164824,"(-10, 18, 3, -4, -2, -3, 0, -5)"
2022/11/28/23:08:20.164839,"(-4, 4, 4, 0, -1, 2, 3, -2)"
2022/11/28/23:08:20.173048,"(-4, -22, -15, -3, -2, -2, -10, -3)"
2022/11/28/23:08:20.173712,"(16, 24, 18, 4, 2, 0, -3, -14)"
2022/11/28/23:08:20.188704,"(-1, -20, -13, -4, -3, 0, 0, 11)"
2022/11/28/23:08:20.188715,"(20, 3, 6, 4, 2, -2, -6, 10)"
2022/11/28/23:08:20.189602,"(-15, 9, 2, 1, 0, 1, 8, 10)"
2022/11/28/23:08:20.189610,"(-14, -16, -8, -4, -1, -2, -2, -16)"
2022/11/28/23:08:20.210881,"(4, -2, 3, 0, -1, 0, -2, 13)"
2022/11/28/23:08:20.210909,"(-6, 3, 2, -1, -1, -1, -9, -87)"
2022/11/28/23:08:20.211715,"(-8, -8, 2, 3, 1, -3, -13, 7)"
2022/11/28/23:08:20.211744,"(-49, -4, -9, -4, 0, -2, 9, 9)"
2022/11/28/23:08:20.225344,"(-6, -12, 1, 0, 0, -3, -7, -16)"
2022/11/28/23:08:20.225377,"(9, 1, -2, -2, -4, 1, 1, -2)"
2022/11/28/23:08:20.233149,"(16, 10, 1, -1, -3, 0, 3, 23)"
2022/11/28/23:08:20.233161,"(7, -3, -1, 1, 0, -1, -6, -26)"
2022/11/28/23:08:20.248037,"(-7, -22, -11, -5, -2, -3, -1, 24)"
2022/11/28/23:08:20.248146,"(0, 6, 1, -3, -2, -1, 18, 36)"
2022/11/28/23:08:20.248886,"(34, 5, 6, 2, 1, 0, -3, 10)"
2022/11/28/23:08:20.248894,"(-3, 20, -5, -2, -1, -2, -5, -4)"
2022/11/28/23:08:20.270626,"(11, -24, -10, -4, -1, 1, 2, -40)"
2022/11/28/23:08:20.270643,"(-57, 3, -1, 0, -2, -6, -22, -56)"
2022/11/28/23:08:20.271346,"(-8, -1, 4, -1, -1, 0, 5, 0)"
2022/11/28/23:08:20.271365,"(10, -3, -10, -2, 1, 1, 1, 16)"
2022/11/28/23:08:20.284981,"(-38, 23, 9, 2, 1, 0, -8, -38)"
2022/11/28/23:08:20.284997,"(27, -9, -3, -3, -2, -1, 9, 31)"
2022/11/28/23:08:20.293533,"(33, 15, 3, 2, -1, -1, -17, -26)"
2022/11/28/23:08:20.293784,"(-27, -21, -7, -4, -5, -3, -1, 2)"
2022/11/28/23:08:20.308105,"(-8, 1, -5, -3, 0, 2, 7, 51)"
2022/11/28/23:08:20.308119,"(5, 4, 5, 0, -1, -3, -8, -39)"
2022/11/28/23:08:20.308793,"(-11, -8, 5, -1, -1, -1, 8, 24)"
2022/11/28/23:08:20.308807,"(60, 12, 8, 3, 2, 2, 0, 37)"
2022/11/28/23:08:20.330702,"(-77, -12, -3, -2, -3, -3, 0, -7)"
2022/11/28/23:08:20.331396,"(16, 15, -4, -1, 2, 0, 0, 24)"
2022/11/28/23:08:20.331469,"(-22, -6, -7, -2, -1, -1, 8, 17)"
2022/11/28/23:08:20.331476,"(25, 0, -2, -3, -1, -2, -3, -9)"
2022/11/28/23:08:20.344674,"(28, 21, 9, -2, 1, 2, 6, 9)"
2022/11/28/23:08:20.344691,"(10, -14, 2, 5, 0, -2, -17, -14)"
2022/11/28/23:08:20.353248,"(4, -13, -4, 2, -1, -1, 11, -3)"
2022/11/28/23:08:20.353282,"(-1, 14, 10, 0, 0, 1, -7, 10)"
2022/11/28/23:08:20.368007,"(2, -7, -2, 0, 0, -1, -1, -11)"
2022/11/28/23:08:20.368030,"(-17, -10, -7, -6, -3, -1, 10, 9)"
2022/11/28/23:08:20.368617,"(1, 13, -2, -1, 0, 0, -8, 7)"
2022/11/28/23:08:20.368641,"(-22, -6, -1, -1, -4, -2, -2, -6)"
2022/11/28/23:08:20.390790,"(23, -7, -1, 0, -3, 1, 10, -23)"
2022/11/28/23:08:20.390823,"(-5, 0, -2, -1, 1, 3, 1, 16)"
2022/11/28/23:08:20.391578,"(-9, 0, -2, -3, 0, 0, 0, 12)"
2022/11/28/23:08:20.391591,"(-16, -8, -2, -1, -2, -3, 3, -41)"
2022/11/28/23:08:20.404721,"(-2, 5, 0, -3, -1, -2, -3, -15)"
2022/11/28/23:08:20.404742,"(25, 5, -2, -1, 1, 2, 6, 58)"
2022/11/28/23:08:20.413814,"(6, -6, -6, -12, -4, -2, -4, -1)"
2022/11/28/23:08:20.413842,"(6, -5, -4, 14, -3, -1, 4, 21)"
2022/11/28/23:08:20.428477,"(7, 2, 5, -2, 1, -1, 1, 11)"
2022/11/28/23:08:20.429405,"(9, 1, 4, 4, -1, -1, 0, -10)"
2022/11/28/23:08:20.429864,"(-14, -2, -3, -3, 0, -1, -4, -25)"
2022/11/28/23:08:20.429889,"(-6, -2, -2, -10, -1, -2, -8, 8)"
2022/11/28/23:08:20.450575,"(20, 6, 7, 9, -3, -1, -4, 2)"
2022/11/28/23:08:20.450608,"(14, -4, -8, -6, 0, -1, 1, -2)"
2022/11/28/23:08:20.451859,"(-7, -3, -7, -3, -3, -3, -2, -6)"
2022/11/28/23:08:20.451885,"(-28, -10, -8, -5, -4, -2, 16, -21)"
2022/11/28/23:08:20.473858,"(11, 16, 10, 1, 1, -1, -22, -7)"
2022/11/28/23:08:20.473890,"(-9, 17, 9, 0, 0, -3, 2, -21)"
2022/11/28/23:08:20.475019,"(-4, -8, -1, 1, 1, -1, 2, 2)"
2022/11/28/23:08:20.475043,"(4, 1, -5, -5, 1, 2, 3, -4)"
2022/11/28/23:08:20.488055,"(-17, -30, -27, -12, -1, -3, 3, 0)"
2022/11/28/23:08:20.488076,"(2, 9, 6, 1, -2, -1, 1, -4)"
2022/11/28/23:08:20.488906,"(-10, 3, 4, 2, 0, -2, -11, -14)"
2022/11/28/23:08:20.488929,"(9, -5, -3, -3, 2, 2, 7, 50)"
2022/11/28/23:08:20.510673,"(-4, -1, -3, -2, -4, 1, 9, 7)"
2022/11/28/23:08:20.510692,"(-8, -11, -6, -2, -2, 2, 0, 7)"
2022/11/28/23:08:20.511006,"(3, -4, -7, -3, 1, -1, -3, 3)"
2022/11/28/23:08:20.511016,"(12, 4, 13, 1, 1, -2, -17, -3)"
2022/11/28/23:08:20.534718,"(-8, 5, 1, 8, -3, -2, -3, -3)"
2022/11/28/23:08:20.534737,"(-1, -6, -2, -2, -3, -3, 1, -16)"
2022/11/28/23:08:20.535608,"(0, -1, 1, 1, -2, -1, 0, 4)"
2022/11/28/23:08:20.535626,"(-8, -3, -5, -6, -1, 2, 5, -14)"
2022/11/28/23:08:20.547541,"(3, 4, 0, -5, -2, -2, -7, -15)"
2022/11/28/23:08:20.547553,"(-3, -5, -8, -1, -1, -1, 0, -5)"
2022/11/28/23:08:20.547965,"(-7, -24, -11, -1, -1, -1, -1, -8)"
2022/11/28/23:08:20.547984,"(-1, 46, 23, 4, 1, 3, 9, 29)"
2022/11/28/23:08:20.570631,"(10, -1, 11, 4, 2, -6, -15, 41)"
2022/11/28/23:08:20.570667,"(-5, -5, -6, -4, 0, 3, 4, -15)"
2022/11/28/23:08:20.571566,"(7, -5, -5, -1, 1, 2, 11, 10)"
2022/11/28/23:08:20.571580,"(23, 0, -3, 2, 1, -1, -19, -2)"
2022/11/28/23:08:20.594426,"(-5, 4, 0, -1, 0, -2, 7, -13)"
2022/11/28/23:08:20.594469,"(-28, -5, -2, -1, -4, -2, 0, -23)"
2022/11/28/23:08:20.594673,"(-13, 20, 12, 3, 0, 1, -2, 2)"
2022/11/28/23:08:20.594695,"(-13, -18, -13, -3, -3, -2, 4, 2)"
2022/11/28/23:08:20.608099,"(15, 8, 0, 0, -1, 0, -6, 2)"
2022/11/28/23:08:20.608114,"(-9, -12, -5, -3, -2, -2, -3, -53)"
2022/11/28/23:08:20.608905,"(11, 7, 4, 0, -1, 1, 10, 21)"
2022/11/28/23:08:20.608931,"(-6, -2, 0, -1, -1, 1, -1, 5)"
2022/11/28/23:08:20.630616,"(6, -8, -5, -8, -5, -5, 12, -1)"
2022/11/28/23:08:20.630636,"(3, -15, -9, -1, 0, 0, -6, 23)"
2022/11/28/23:08:20.631621,"(-4, 2, 0, 2, -3, -2, -9, -13)"
2022/11/28/23:08:20.631652,"(4, 15, 17, 5, 2, -3, -4, -3)"
2022/11/28/23:08:20.653777,"(6, -9, -10, -5, 0, 5, 19, 30)"
2022/11/28/23:08:20.653789,"(23, 13, 6, 4, 2, -1, -12, 64)"
2022/11/28/23:08:20.654457,"(15, -4, -3, -4, -3, -6, -10, 13)"
2022/11/28/23:08:20.654499,"(-27, -14, -14, -4, -1, -2, 1, -25)"
2022/11/28/23:08:20.668247,"(-11, -8, -2, 0, 1, 5, 6, 0)"
2022/11/28/23:08:20.668276,"(-8, 2, 0, 1, -1, -2, 1, -12)"
2022/11/28/23:08:20.669054,"(13, 3, 1, 0, -2, 1, 0, 6)"
2022/11/28/23:08:20.669070,"(6, -10, -6, -2, -2, -2, 0, -1)"
2022/11/28/23:08:20.690330,"(-8, 0, 0, -1, 1, 0, -5, -3)"
2022/11/28/23:08:20.690367,"(19, 4, -1, -1, -1, 0, -4, 29)"
2022/11/28/23:08:20.691334,"(-4, -6, 5, 3, 0, 1, 3, -6)"
2022/11/28/23:08:20.691341,"(-4, -9, -4, -1, -3, -1, 0, -7)"
2022/11/28/23:08:20.713854,"(-6, 4, 0, -1, -1, -3, -12, -15)"
2022/11/28/23:08:20.713868,"(2, 1, 3, 2, -2, -1, -4, -3)"
2022/11/28/23:08:20.714607,"(-1, 1, -1, -2, 0, 2, 0, -8)"
2022/11/28/23:08:20.714625,"(-1, 4, -2, -2, 0, 2, -1, 11)"
2022/11/28/23:08:20.727904,"(-4, -3, -2, -2, 0, -3, -17, 0)"
2022/11/28/23:08:20.727917,"(-1, -3, -2, -2, -1, -1, 6, -7)"
2022/11/28/23:08:20.728555,"(5, 10, 5, 4, 2, -3, -8, 25)"
2022/11/28/23:08:20.728566,"(19, -8, -5, -1, -3, 2, 7, 7)"
2022/11/28/23:08:20.750638,"(-9, -1, 0, -1, -2, -5, -9, -46)"
2022/11/28/23:08:20.750665,"(-4, 2, 1, 0, 0, -2, 1, -14)"
2022/11/28/23:08:20.751778,"(25, 9, 5, 0, 0, -5, -20, 9)"
2022/11/28/23:08:20.751800,"(-11, -4, -4, -3, -2, -5, -11, 7)"
2022/11/28/23:08:20.773880,"(1, -3, -4, -1, -3, -4, -1, -81)"
2022/11/28/23:08:20.773898,"(-8, -4, 2, -2, 0, 1, 8, 11)"
2022/11/28/23:08:20.774504,"(-21, -1, -3, -2, 0, -3, -5, -5)"
2022/11/28/23:08:20.774590,"(19, -7, 0, 0, -1, -4, 1, -12)"
2022/11/28/23:08:20.787824,"(-7, -1, 0, -1, -1, 3, 2, 9)"
2022/11/28/23:08:20.787850,"(6, -1, -2, -1, 1, -1, 9, 10)"
2022/11/28/23:08:20.788572,"(0, 0, -3, -4, -3, 4, 7, -20)"
2022/11/28/23:08:20.788582,"(-16, -1, 2, 1, 1, -3, -17, -24)"
2022/11/28/23:08:20.810897,"(4, 2, 1, 1, 0, -1, 1, 14)"
2022/11/28/23:08:20.811202,"(17, 3, -2, 0, -2, 1, 0, 10)"
2022/11/28/23:08:20.811813,"(-10, -6, -2, -3, -2, -1, 5, 12)"
2022/11/28/23:08:20.811827,"(-3, -4, -4, -1, -1, -1, -3, -13)"
2022/11/28/23:08:20.833881,"(-3, 2, 0, 1, -1, -2, -1, 18)"
2022/11/28/23:08:20.833899,"(-6, -1, 1, -1, -1, -3, -7, -7)"
2022/11/28/23:08:20.834645,"(0, 0, -1, -1, 0, 0, 7, 3)"
2022/11/28/23:08:20.834665,"(-7, -2, -3, -3, -2, -2, 0, 0)"
2022/11/28/23:08:20.848638,"(6, 0, 2, 0, 1, 0, -3, -5)"
2022/11/28/23:08:20.848649,"(-9, -1, 0, 1, -2, -8, -2, -27)"
2022/11/28/23:08:20.855816,"(-8, -6, -3, 0, 0, 1, 10, 12)"
2022/11/28/23:08:20.856098,"(7, 0, -1, -1, -3, -1, 3, 10)"
2022/11/28/23:08:20.870271,"(-2, 3, 1, -1, -2, -1, 1, 26)"
2022/11/28/23:08:20.870281,"(-31, -4, -3, -3, 0, -2, -2, 13)"
2022/11/28/23:08:20.877842,"(7, 0, -2, -1, -4, -4, -1, -31)"
2022/11/28/23:08:20.877860,"(1, 1, -1, -1, -4, -1, 5, -5)"
2022/11/28/23:08:20.894063,"(2, -5, -3, -1, -2, -1, -8, 4)"
2022/11/28/23:08:20.894088,"(1, -1, 0, -1, -3, 1, 8, 4)"
2022/11/28/23:08:20.894998,"(4, -2, -3, 1, -1, -1, -4, -8)"
2022/11/28/23:08:20.895013,"(-15, 0, 0, -1, 0, 2, 2, 12)"
2022/11/28/23:08:20.907766,"(14, -3, -4, -3, 1, 0, 5, -25)"
2022/11/28/23:08:20.907844,"(14, 3, 2, 1, 2, -1, -10, 17)"
2022/11/28/23:08:20.908705,"(-7, 1, 0, -1, -1, -3, 2, 6)"
2022/11/28/23:08:20.908726,"(1, -1, -2, -1, -1, -3, 0, -4)"
2022/11/28/23:08:20.930645,"(0, 1, 0, -1, -2, 0, 2, 10)"
2022/11/28/23:08:20.930671,"(7, 1, 1, 0, -1, -1, -1, 1)"
2022/11/28/23:08:20.931483,"(-12, -1, -2, -2, 0, -1, 2, -12)"
2022/11/28/23:08:20.931507,"(-7, -2, -4, -2, 0, -1, -4, -8)"
2022/11/28/23:08:20.953769,"(-8, 0, 0, 1, 0, -1, -3, 8)"
2022/11/28/23:08:20.953795,"(-4, -7, -7, -4, -2, 1, 5, 9)"
2022/11/28/23:08:20.955110,"(30, -6, 0, -2, -3, 1, 10, 11)"
2022/11/28/23:08:20.955134,"(-16, -2, 0, 1, 2, 0, -2, -17)"
2022/11/28/23:08:20.968506,"(-11, -1, -2, 0, -1, -1, -2, 2)"
2022/11/28/23:08:20.968638,"(13, 1, -3, -1, -1, -1, 1, -5)"
2022/11/28/23:08:20.968892,"(8, 0, -2, -3, -1, -2, 0, 6)"
2022/11/28/23:08:20.968908,"(20, 15, 8, 0, 0, -1, -4, -10)"
2022/11/28/23:08:20.991455,"(-25, -16, -1, -2, 0, -1, -4, -12)"
2022/11/28/23:08:20.991477,"(0, 1, -7, -4, -4, -1, -5, -14)"
2022/11/28/23:08:20.991486,"(-12, 3, 4, 1, -1, 1, -4, -4)"
2022/11/28/23:08:20.991504,"(8, 7, -1, 1, 0, -6, -5, 11)"
2022/11/28/23:08:21.014187,"(6, -6, 0, -2, -3, -1, 0, 3)"
2022/11/28/23:08:21.014210,"(5, 3, 1, 2, 2, 0, -3, -4)"
2022/11/28/23:08:21.016573,"(-2, -3, 1, -1, -2, -3, -32, -19)"
2022/11/28/23:08:21.016595,"(-12, -18, -4, -2, 0, 2, 8, -37)"
2022/11/28/23:08:21.027956,"(8, 14, -4, -5, -1, 0, 2, 16)"
2022/11/28/23:08:21.027985,"(-7, -19, 4, -1, -2, 0, -1, 16)"
2022/11/28/23:08:21.028735,"(-9, 28, 0, 1, 2, -3, 15, 4)"
2022/11/28/23:08:21.028752,"(21, 3, 3, 1, -2, 1, 0, 3)"
2022/11/28/23:08:21.050544,"(7, -24, -14, -3, -1, -1, 6, -4)"
2022/11/28/23:08:21.051710,"(-4, 44, 10, -2, -5, 0, 11, -3)"
2022/11/28/23:08:21.051731,"(-47, -48, -9, -6, -2, -2, -2, -52)"
2022/11/28/23:08:21.051739,"(-5, 10, 11, 1, -2, -2, -8, -13)"
2022/11/28/23:08:21.073455,"(6, -16, -13, 0, 0, -4, -5, -6)"
2022/11/28/23:08:21.073468,"(-36, -12, -6, -4, -3, -4, 4, 18)"
2022/11/28/23:08:21.073923,"(-4, 9, -9, -4, -3, -1, 3, 3)"
2022/11/28/23:08:21.073942,"(-2, -30, 5, 0, 1, 0, 2, -5)"
2022/11/28/23:08:21.087467,"(-9, 30, -2, -4, -4, -3, -6, -24)"
2022/11/28/23:08:21.087494,"(23, -23, -6, 0, 1, -4, -23, -19)"
2022/11/28/23:08:21.096131,"(-20, 3, -6, -3, -2, 0, -2, -31)"
2022/11/28/23:08:21.096160,"(-14, -3, -7, -6, -3, 0, 2, 31)"
2022/11/28/23:08:21.111509,"(26, 21, 2, 3, 1, 4, 28, 102)"
2022/11/28/23:08:21.111547,"(-2, 28, 1, 2, 0, -4, -9, -72)"
2022/11/28/23:08:21.112236,"(14, 20, 21, 3, -1, -1, 17, 30)"
2022/11/28/23:08:21.112258,"(-17, -14, -9, -8, -2, -3, -5, 16)"
2022/11/28/23:08:21.133646,"(-21, 34, 48, 11, -3, -5, -13, -19)"
2022/11/28/23:08:21.133660,"(62, 2, -35, 0, 2, 3, -5, -36)"
2022/11/28/23:08:21.134089,"(-13, -14, 18, -1, 1, -2, -15, 13)"
2022/11/28/23:08:21.134096,"(-66, -8, 10, 1, 2, 1, 17, 55)"
2022/11/28/23:08:21.147323,"(-2, -39, -17, -7, -1, 0, -10, -44)"
2022/11/28/23:08:21.147333,"(-45, 15, 29, 12, -3, -2, 13, 16)"
2022/11/28/23:08:21.156077,"(-2, -41, -28, -11, 0, 4, 7, -10)"
2022/11/28/23:08:21.156093,"(-2, -17, -11, -20, -5, -2, -1, 24)"
2022/11/28/23:08:21.171042,"(-39, 30, -2, 8, -5, -8, -25, -88)"
2022/11/28/23:08:21.171053,"(3, -3, -31, -1, 2, 4, 9, 30)"
2022/11/28/23:08:21.171889,"(46, -31, -13, 14, 1, 0, -8, 29)"
2022/11/28/23:08:21.171901,"(112, 63, 23, -15, 0, -4, -4, -79)"
2022/11/28/23:08:21.193371,"(30, 55, 63, -20, -2, 1, 2, 30)"
2022/11/28/23:08:21.193382,"(-41, -78, -100, 36, 0, -1, -2, 10)"
2022/11/28/23:08:21.194221,"(46, -5, 34, -46, -2, 3, 9, 17)"
2022/11/28/23:08:21.194248,"(-9, 80, 29, 81, 5, -2, -24, -53)"
2022/11/28/23:08:21.207377,"(52, 39, 19, -53, -1, 4, 11, 12)"
2022/11/28/23:08:21.207396,"(-18, -20, -4, -58, 1, -2, -10, 18)"
2022/11/28/23:08:21.216152,"(-86, -20, 22, 112, 5, 0, 3, -32)"
2022/11/28/23:08:21.216185,"(26, -114, -49, -81, -5, 3, 13, 101)"
2022/11/28/23:08:21.230642,"(-42, -33, 19, 46, 8, -1, 12, -28)"
2022/11/28/23:08:21.230659,"(52, 100, 45, -26, 0, 1, -30, 10)"
2022/11/28/23:08:21.231356,"(13, -37, 20, -37, -15, -9, -7, -18)"
2022/11/28/23:08:21.231373,"(13, -29, -45, 37, -2, -2, 7, 15)"
2022/11/28/23:08:21.253350,"(32, -27, 16, -55, 5, 5, 6, 23)"
2022/11/28/23:08:21.253365,"(-20, 48, -112, 49, 1, 0, 14, -10)"
2022/11/28/23:08:21.254194,"(32, 82, 85, -12, 0, -2, -16, -4)"
2022/11/28/23:08:21.254201,"(17, 35, -16, 22, 1, -3, -7, -24)"
2022/11/28/23:08:21.276586,"(45, -88, -79, 26, -5, 1, 5, 35)"
2022/11/28/23:08:21.276618,"(15, 14, -76, -34, -5, -3, 4, -2)"
2022/11/28/23:08:21.277522,"(12, -9, 77, -20, 1, 1, 1, 5)"
2022/11/28/23:08:21.277544,"(-54, -17, 78, -24, -5, -2, -5, -21)"
2022/11/28/23:08:21.290550,"(12, -51, -128, 0, -9, -7, -6, -7)"
2022/11/28/23:08:21.290631,"(65, -22, 79, -54, 7, 4, 4, 30)"
2022/11/28/23:08:21.291384,"(-80, -20, 21, 81, -3, -5, -1, -20)"
2022/11/28/23:08:21.291393,"(44, 22, 47, 30, 12, 8, 6, 26)"
2022/11/28/23:08:21.313348,"(-2, -9, 10, 13, 6, 1, 14, 8)"
2022/11/28/23:08:21.313526,"(-36, -65, -27, -14, -14, 2, -27, -12)"
2022/11/28/23:08:21.314080,"(29, 30, -4, -57, 4, -3, 6, 21)"
2022/11/28/23:08:21.314103,"(-36, 11, 45, 10, 0, 0, -6, -18)"
2022/11/28/23:08:21.327515,"(3, 20, -28, -41, -3, -4, -6, -1)"
2022/11/28/23:08:21.327540,"(-23, -13, 77, 94, -3, 2, 9, -3)"
2022/11/28/23:08:21.335933,"(-10, -9, -128, -55, -13, 1, 7, 2)"
2022/11/28/23:08:21.335949,"(-2, 2, 24, -6, 11, 6, 6, -3)"
2022/11/28/23:08:21.350590,"(-47, 6, 25, 26, 14, -19, -30, -3)"
2022/11/28/23:08:21.350610,"(-6, -9, 12, -17, -12, -10, 9, 7)"
2022/11/28/23:08:21.351355,"(19, 2, -97, -24, -5, -4, 0, 6)"
2022/11/28/23:08:21.351363,"(-8, -1, 23, 39, -24, -12, -1, -8)"
2022/11/28/23:08:21.374637,"(-12, -6, -99, -49, 3, 38, -8, 1)"
2022/11/28/23:08:21.374668,"(1, 2, 54, 2, 0, -40, 3, -7)"
2022/11/28/23:08:21.375386,"(18, 19, -10, 65, -8, -28, -2, 8)"
2022/11/28/23:08:21.375400,"(-10, -5, -67, -84, -7, -2, 15, -15)"
2022/11/28/23:08:21.396240,"(-15, 4, 49, 12, 17, 18, 22, 5)"
2022/11/28/23:08:21.396260,"(-3, -6, -20, -1, -29, -44, -15, -2)"
2022/11/28/23:08:21.396981,"(-9, 1, 18, -82, 3, 45, -11, 0)"
2022/11/28/23:08:21.396992,"(-1, -8, -34, 52, 18, -12, -25, -5)"
2022/11/28/23:08:21.410406,"(0, 5, 6, 40, 2, 4, 9, 3)"
2022/11/28/23:08:21.410421,"(-7, -4, 22, -20, 4, -18, -4, -1)"
2022/11/28/23:08:21.411257,"(5, -3, -5, -1, 2, 14, -4, -2)"
2022/11/28/23:08:21.411266,"(1, 4, -19, -4, -10, 20, -31, -4)"
2022/11/28/23:08:21.433499,"(-3, 11, 53, -1, -1, 5, 9, -2)"
2022/11/28/23:08:21.434308,"(-4, -7, -6, -1, 3, 32, 18, 1)"
2022/11/28/23:08:21.434330,"(1, 4, 4, 23, 7, 17, 0, 0)"
2022/11/28/23:08:21.434355,"(1, 0, -15, -14, -20, -55, 2, 4)"
2022/11/28/23:08:21.456309,"(-11, 1, -4, 9, -6, -4, -2, -9)"
2022/11/28/23:08:21.456359,"(-7, -5, 25, 3, 2, 15, 7, 7)"
2022/11/28/23:08:21.457238,"(5, 6, 0, 18, 8, -10, -13, 0)"
2022/11/28/23:08:21.457261,"(-5, -6, -7, -27, 1, 21, 12, -1)"
2022/11/28/23:08:21.470697,"(-3, -7, -5, -7, -19, -26, -10, -1)"
2022/11/28/23:08:21.470741,"(5, 8, 13, 24, 25, 12, 2, -3)"
2022/11/28/23:08:21.471553,"(3, 2, 10, -14, -12, 8, 1, 15)"
2022/11/28/23:08:21.471563,"(-17, -7, -24, -27, 7, -14, -13, -51)"
2022/11/28/23:08:21.493482,"(22, 4, 24, 64, 0, 10, -14, 6)"
2022/11/28/23:08:21.493509,"(-38, -9, -4, -13, 1, -14, -9, 0)"
2022/11/28/23:08:21.494071,"(28, 3, -8, -1, 17, -28, 8, 1)"
2022/11/28/23:08:21.494083,"(-4, 6, 0, 10, 1, 4, -10, 23)"
2022/11/28/23:08:21.516336,"(8, 3, 4, -20, -10, -5, 5, -31)"
2022/11/28/23:08:21.516359,"(10, -8, 8, 1, 2, 15, 2, 1)"
2022/11/28/23:08:21.517110,"(-5, -29, -4, -1, -3, -8, 13, 14)"
2022/11/28/23:08:21.517129,"(-2, 37, 4, 3, 0, 8, -1, -8)"
2022/11/28/23:08:21.530590,"(-78, -8, 7, -3, -1, -7, -9, -41)"
2022/11/28/23:08:21.530619,"(40, 8, 2, 3, 0, 4, -4, -3)"
2022/11/28/23:08:21.531398,"(-6, -4, 11, -2, -3, -7, 13, 41)"
2022/11/28/23:08:21.531409,"(-30, -17, -20, -6, 4, 9, -23, -33)"
2022/11/28/23:08:21.553101,"(12, 8, 4, -4, -6, -1, 16, 60)"
2022/11/28/23:08:21.553116,"(-65, -39, -4, 3, -8, -1, 0, -64)"
2022/11/28/23:08:21.553827,"(12, 21, -41, -20, -1, 25, -26, -55)"
2022/11/28/23:08:21.553844,"(-12, -6, 17, 12, -10, -55, 21, 18)"
2022/11/28/23:08:21.576423,"(-16, -4, 16, 1, 8, 1, -8, 20)"
2022/11/28/23:08:21.576451,"(29, -9, -6, -2, -1, 3, 30, 11)"
2022/11/28/23:08:21.577152,"(14, 19, 40, 9, -8, 9, 7, 36)"
2022/11/28/23:08:21.577167,"(19, 5, -19, -14, -5, 17, -3, -22)"
2022/11/28/23:08:21.590385,"(-4, 3, -19, -9, -6, -7, -18, -16)"
2022/11/28/23:08:21.590543,"(-14, -2, 26, -1, 11, 12, 2, 16)"
2022/11/28/23:08:21.591170,"(10, 9, -10, 16, -3, -11, -8, -13)"
2022/11/28/23:08:21.591181,"(23, -31, -9, -21, -2, 12, 20, 31)"
2022/11/28/23:08:21.613113,"(-10, 12, 20, 10, -5, -21, 0, -10)"
2022/11/28/23:08:21.613203,"(16, 10, 14, 55, 0, 20, -12, 0)"
2022/11/28/23:08:21.613795,"(13, -3, -20, -12, 3, -3, 13, 0)"
2022/11/28/23:08:21.613818,"(-25, 19, 12, 10, 4, -6, -9, 0)"
2022/11/28/23:08:21.636910,"(39, -5, -22, -32, -6, -7, -17, 5)"
2022/11/28/23:08:21.637074,"(-17, 22, 0, -22, -6, -6, -8, -4)"
2022/11/28/23:08:21.637434,"(-59, -18, 6, 17, 1, -11, -9, -5)"
2022/11/28/23:08:21.637627,"(10, -27, -23, -4, -1, 6, -1, -27)"
2022/11/28/23:08:21.650342,"(13, 4, 9, -4, -3, 0, 2, 23)"
2022/11/28/23:08:21.650370,"(37, 14, -6, -6, -1, -5, -10, 4)"
2022/11/28/23:08:21.651184,"(-11, -37, -4, 4, -11, -4, 4, 3)"
2022/11/28/23:08:21.651199,"(21, 23, -12, -10, 5, 9, -9, 0)"
2022/11/28/23:08:21.673272,"(-2, 12, 21, 12, -2, -2, 4, -13)"
2022/11/28/23:08:21.673414,"(5, 0, 16, 18, 9, 7, 6, 10)"
2022/11/28/23:08:21.674238,"(-3, 4, -10, -12, 2, -11, -10, -24)"
2022/11/28/23:08:21.674253,"(22, -15, -7, -6, -9, 4, 2, 3)"
2022/11/28/23:08:21.696398,"(-11, 1, 10, 22, -2, -3, -6, -19)"
2022/11/28/23:08:21.696416,"(-5, -1, -20, -20, -3, -3, -5, 8)"
2022/11/28/23:08:21.697400,"(-30, -6, 3, -4, 3, 16, 15, 0)"
2022/11/28/23:08:21.697508,"(40, 16, -4, 11, -1, -17, 21, 37)"
2022/11/28/23:08:21.710560,"(3, -3, 5, -12, 2, 3, 10, 8)"
2022/11/28/23:08:21.710575,"(-31, -12, -18, -18, -9, -2, -1, 11)"
2022/11/28/23:08:21.711380,"(42, 23, 18, 4, 6, -1, 2, -1)"
2022/11/28/23:08:21.711402,"(-26, 1, -9, 4, -2, 7, 4, 8)"
2022/11/28/23:08:21.733225,"(63, -27, 23, 5, 0, 0, -4, -15)"
2022/11/28/23:08:21.733239,"(-45, 12, -24, -12, -2, -3, -10, 13)"
2022/11/28/23:08:21.734007,"(22, 11, 16, 6, -1, -1, -9, -18)"
2022/11/28/23:08:21.734029,"(-6, -8, -3, 1, 2, 7, 7, 33)"
2022/11/28/23:08:21.756233,"(-15, -8, -9, -10, -3, 0, 7, -16)"
2022/11/28/23:08:21.756261,"(50, 7, 3, 10, 2, -5, -11, -6)"
2022/11/28/23:08:21.763095,"(-8, -12, -17, -11, -6, -3, -9, -24)"
2022/11/28/23:08:21.763309,"(-20, -6, 16, 29, 0, 3, 15, 2)"
2022/11/28/23:08:21.770140,"(1, 0, -4, -31, 0, 5, -13, 13)"
2022/11/28/23:08:21.770159,"(-8, 1, 11, 13, -3, -5, 0, -1)"
2022/11/28/23:08:21.770852,"(-17, 6, -5, 18, 9, -1, 4, 15)"
2022/11/28/23:08:21.770934,"(6, -6, -1, -11, 3, -3, 3, -14)"
2022/11/28/23:08:21.793069,"(-13, 6, -1, 7, -1, 2, -7, 4)"
2022/11/28/23:08:21.793994,"(-4, -10, -8, -24, -5, -8, 11, 1)"
2022/11/28/23:08:21.794019,"(2, -12, -12, -3, -7, -4, -2, 5)"
2022/11/28/23:08:21.794035,"(-7, 8, 1, 10, 2, 6, -3, -6)"
2022/11/28/23:08:21.816493,"(3, 0, 3, 7, 1, -4, 5, 6)"
2022/11/28/23:08:21.816505,"(-35, 10, 8, -8, -2, 3, -2, -5)"
2022/11/28/23:08:21.817216,"(-4, -8, -3, -1, -1, -6, -9, -7)"
2022/11/28/23:08:21.817238,"(-17, -4, -6, -17, 0, 2, -9, -12)"
2022/11/28/23:08:21.831070,"(9, 13, -11, 27, 4, -5, -19, -11)"
2022/11/28/23:08:21.831083,"(21, -1, 24, -7, 2, 5, 2, 5)"
2022/11/28/23:08:21.831811,"(-10, 5, -5, 3, -2, 0, -8, -8)"
2022/11/28/23:08:21.831820,"(-11, -7, -1, -6, -4, -4, -14, -17)"
2022/11/28/23:08:21.853422,"(1, -20, -33, -22, -5, -2, 2, 6)"
2022/11/28/23:08:21.853454,"(1, 25, 43, 17, 1, 0, 3, -7)"
2022/11/28/23:08:21.854238,"(18, -1, -9, -1, 0, 0, -6, 5)"
2022/11/28/23:08:21.854252,"(-21, -15, 9, 3, -2, 4, 4, 0)"
2022/11/28/23:08:21.876276,"(15, -1, -12, -8, -6, -12, -31, 3)"
2022/11/28/23:08:21.876303,"(-22, -11, -19, -7, 1, 1, -6, -9)"
2022/11/28/23:08:21.877061,"(-8, 14, -2, 2, -6, -7, -4, 6)"
2022/11/28/23:08:21.877082,"(14, 8, 14, 9, 1, 3, 5, -2)"
2022/11/28/23:08:21.890483,"(-19, -11, 1, -12, -1, 2, 12, 6)"
2022/11/28/23:08:21.890496,"(18, 12, -3, 25, 0, -1, -3, -1)"
2022/11/28/23:08:21.891234,"(4, 4, 6, -4, 1, -2, 0, -3)"
2022/11/28/23:08:21.891255,"(2, -6, -6, -5, 2, 1, -4, -8)"
2022/11/28/23:08:21.914020,"(12, 13, -8, -13, 1, 2, -10, 2)"
2022/11/28/23:08:21.914046,"(26, -10, -1, 2, 0, -1, -19, -16)"
2022/11/28/23:08:21.914538,"(-6, 6, 8, 14, 7, 4, 5, -6)"
2022/11/28/23:08:21.914564,"(13, 0, 4, -5, -4, -1, 5, 17)"
2022/11/28/23:08:21.936124,"(-5, -4, -8, -5, -3, 1, 10, -1)"
2022/11/28/23:08:21.936659,"(-20, -9, 5, -11, 2, -6, -5, -14)"
2022/11/28/23:08:21.936890,"(22, -2, -5, 3, -2, 13, -4, 1)"
2022/11/28/23:08:21.936948,"(-65, -4, 0, 0, -4, -17, 6, -1)"
2022/11/28/23:08:21.950633,"(13, 4, 3, 5, -1, 1, 6, -4)"
2022/11/28/23:08:21.950662,"(9, -9, -10, 4, 2, 0, 9, 10)"
2022/11/28/23:08:21.951625,"(-8, -1, 4, 0, 1, -8, -7, -4)"
2022/11/28/23:08:21.951664,"(18, 6, -3, -5, 1, 7, -1, 4)"
2022/11/28/23:08:21.973190,"(-21, -14, -1, -2, -2, 1, 10, -4)"
2022/11/28/23:08:21.973666,"(2, -14, -16, -15, -8, -2, 4, 1)"
2022/11/28/23:08:21.974015,"(3, -1, 4, 2, -5, -3, 5, 7)"
2022/11/28/23:08:21.974027,"(14, -1, 0, 1, 2, 2, -20, -13)"
2022/11/28/23:08:21.996592,"(-10, 36, 18, 10, 3, -1, -7, -8)"
2022/11/28/23:08:21.996836,"(28, -14, -14, -11, -3, 2, -2, 3)"
2022/11/28/23:08:21.997318,"(-22, -11, -22, -16, -3, -7, 3, 9)"
2022/11/28/23:08:21.997449,"(19, -1, 2, -1, -1, -1, -1, -4)"
2022/11/28/23:08:22.010494,"(-13, -5, 7, 10, 3, 1, 10, 12)"
2022/11/28/23:08:22.010513,"(-22, -26, -12, -4, -4, -1, 1, -7)"
2022/11/28/23:08:22.011308,"(16, 38, 24, 4, 3, -2, -2, -9)"
2022/11/28/23:08:22.011318,"(0, -24, -17, -5, 9, -1, 4, 8)"
2022/11/28/23:08:22.033233,"(2, 34, 9, 17, 4, 6, 2, -12)"
2022/11/28/23:08:22.033249,"(11, -20, 12, -24, -2, 0, -12, 9)"
2022/11/28/23:08:22.033849,"(-16, -5, 0, 22, 3, -3, 5, 2)"
2022/11/28/23:08:22.033858,"(-1, -17, -9, -10, -3, 3, 13, 5)"
2022/11/28/23:08:22.056240,"(29, 6, 12, 6, 3, 4, -1, 10)"
2022/11/28/23:08:22.056259,"(-9, 4, -14, -6, -2, -3, 5, -2)"
2022/11/28/23:08:22.057254,"(-2, -9, 5, -5, -4, -5, -7, -1)"
2022/11/28/23:08:22.057351,"(24, 10, 0, 3, -4, -4, -12, 11)"
2022/11/28/23:08:22.069590,"(-72, -23, 4, -1, -2, -2, 9, -17)"
2022/11/28/23:08:22.069610,"(20, 26, -5, 0, 1, -2, -6, -5)"
2022/11/28/23:08:22.078431,"(8, -43, -9, -6, -1, 3, 2, 1)"
2022/11/28/23:08:22.078460,"(3, 52, 13, -8, -5, -2, -5, -3)"
2022/11/28/23:08:22.094100,"(-46, -24, -12, 17, -1, -3, -1, -10)"
2022/11/28/23:08:22.094133,"(86, 25, -7, -8, 12, 1, -3, -13)"
2022/11/28/23:08:22.094629,"(-55, -10, -1, -11, -5, -6, -1, -6)"
2022/11/28/23:08:22.094666,"(13, 15, 26, 10, 2, -1, -1, -1)"
2022/11/28/23:08:22.116268,"(-10, -12, -19, -6, -3, 1, 8, 0)"
2022/11/28/23:08:22.116420,"(-8, -35, 7, 4, -2, -3, -8, 15)"
2022/11/28/23:08:22.117080,"(24, 11, 7, 16, -1, 0, 11, 16)"
2022/11/28/23:08:22.117104,"(-5, 5, -22, -19, -5, 0, 1, -11)"
2022/11/28/23:08:22.129707,"(13, -32, -7, -11, -4, -1, 2, 16)"
2022/11/28/23:08:22.129723,"(-14, 20, 16, 18, 1, 0, 9, 7)"
2022/11/28/23:08:22.138256,"(7, 4, -8, -8, 2, 0, -9, 6)"
2022/11/28/23:08:22.138300,"(-19, -25, -9, -1, -2, -4, -18, -23)"
2022/11/28/23:08:22.152993,"(30, 3, -17, -8, -3, -6, -3, -3)"
2022/11/28/23:08:22.153015,"(-21, 0, 16, -15, -4, 2, 9, 5)"
2022/11/28/23:08:22.153729,"(-16, -2, 6, 13, 8, 0, 2, 1)"
2022/11/28/23:08:22.153746,"(16, 27, 21, 23, 5, 2, 2, 10)"
2022/11/28/23:08:22.176549,"(14, -8, -15, -25, -4, 4, 5, 0)"
2022/11/28/23:08:22.176567,"(-31, -20, -14, 4, -6, -3, -12, -11)"
2022/11/28/23:08:22.178320,"(11, 28, 11, -1, -3, 0, 6, 2)"
2022/11/28/23:08:22.178347,"(19, -19, -8, 3, 1, -2, 4, 1)"
2022/11/28/23:08:22.189927,"(-42, 8, 1, 2, 9, -2, 0, 7)"
2022/11/28/23:08:22.189939,"(7, -7, 10, -9, -2, -1, 2, 4)"
2022/11/28/23:08:22.198247,"(-23, -15, -17, -20, -18, 2, -8, -17)"
2022/11/28/23:08:22.198807,"(18, -7, -10, 13, -2, 0, 9, 8)"
2022/11/28/23:08:22.213179,"(6, 4, 27, 4, 1, -2, -7, -11)"
2022/11/28/23:08:22.213203,"(-8, 4, -14, -7, -2, 0, 1, 1)"
2022/11/28/23:08:22.213854,"(9, -4, -8, -6, -3, 5, 3, -6)"
2022/11/28/23:08:22.213917,"(-19, -4, 9, 23, 14, 2, 4, 2)"
2022/11/28/23:08:22.238755,"(1, -7, -31, -31, -9, -6, -4, 3)"
2022/11/28/23:08:22.238780,"(2, 8, 18, 38, 4, -1, 2, 6)"
2022/11/28/23:08:22.238788,"(17, -1, -5, -20, -3, 8, 4, -5)"
2022/11/28/23:08:22.238799,"(-12, -7, -10, -26, -13, -16, -17, -6)"
2022/11/28/23:08:22.249830,"(-5, 2, 9, 16, 3, 4, 3, -5)"
2022/11/28/23:08:22.249843,"(1, 3, -19, -14, -3, -3, -4, -5)"
2022/11/28/23:08:22.266083,"(1, 2, 1, 1, 3, 1, 0, 0)"
2022/11/28/23:08:22.266121,"(-20, -4, 17, 0, -2, -6, -7, -2)"
2022/11/28/23:08:22.273341,"(24, 10, -3, 4, -4, 1, -5, 0)"
2022/11/28/23:08:22.273355,"(-7, 0, 8, 0, -4, 0, 6, 5)"
2022/11/28/23:08:22.273771,"(-10, 0, 1, 3, 1, -7, -4, -6)"
2022/11/28/23:08:22.273790,"(0, -12, -25, -20, -5, 2, -5, -11)"
2022/11/28/23:08:22.296321,"(7, 5, 17, 22, 1, 2, -2, 7)"
2022/11/28/23:08:22.296353,"(6, 2, -5, -9, -4, 1, 4, -1)"
2022/11/28/23:08:22.296924,"(0, -2, 6, 0, 2, -2, -2, 2)"
2022/11/28/23:08:22.296948,"(17, 4, -3, 5, 1, 3, 1, 3)"
2022/11/28/23:08:22.310020,"(-22, 1, 9, 0, 5, -2, 7, 11)"
2022/11/28/23:08:22.310043,"(-7, 1, -14, -1, 1, 2, -8, -10)"
2022/11/28/23:08:22.319334,"(9, -3, -5, -14, -1, -6, -5, -11)"
2022/11/28/23:08:22.319345,"(-13, -8, -6, 1, 0, 4, 1, -11)"
2022/11/28/23:08:22.333092,"(14, 7, -11, -8, 0, -2, 0, -1)"
2022/11/28/23:08:22.333108,"(-13, 4, 23, 12, -1, 1, 14, 12)"
2022/11/28/23:08:22.333963,"(0, -1, -7, 7, 3, 0, 1, 8)"
2022/11/28/23:08:22.333975,"(6, 1, 9, 2, -2, 3, -4, 8)"
2022/11/28/23:08:22.355827,"(15, -8, -15, -16, -2, -1, -2, -12)"
2022/11/28/23:08:22.355850,"(-42, -7, -2, 6, -2, -7, -22, -1)"
2022/11/28/23:08:22.356681,"(3, 4, 1, -4, -4, -3, 1, 1)"
2022/11/28/23:08:22.356692,"(33, 7, 4, 16, 8, 3, 0, -23)"
2022/11/28/23:08:22.379174,"(-17, -6, 4, -3, -2, 1, -9, 3)"
2022/11/28/23:08:22.379185,"(12, 5, -10, -12, -3, -3, 3, -7)"
2022/11/28/23:08:22.380139,"(-4, -5, -3, 2, 0, -1, -1, -3)"
2022/11/28/23:08:22.380158,"(-19, -6, -10, 2, -3, 1, 15, 8)"
2022/11/28/23:08:22.392851,"(5, 4, 1, -7, -9, -5, -8, -1)"
2022/11/28/23:08:22.392876,"(2, -1, 11, 4, 3, 1, 1, -5)"
2022/11/28/23:08:22.393626,"(-15, -2, -3, 4, -1, -3, -13, -16)"
2022/11/28/23:08:22.393644,"(4, 0, -2, -12, -1, 0, 0, 13)"
2022/11/28/23:08:22.415721,"(-14, -16, 1, -4, -4, -1, 9, -6)"
2022/11/28/23:08:22.416020,"(-5, 9, -22, 4, -3, -3, -8, -13)"
2022/11/28/23:08:22.416495,"(9, -1, 11, -7, 2, 0, 7, 19)"
2022/11/28/23:08:22.416515,"(1, 2, 8, 16, -4, -7, -9, -2)"
2022/11/28/23:08:22.438881,"(8, 5, 14, 6, 5, 5, 1, -8)"
2022/11/28/23:08:22.438894,"(9, -5, -9, -5, -4, 0, 9, -3)"
2022/11/28/23:08:22.439963,"(-22, -13, -10, -5, -4, -3, -4, -6)"
2022/11/28/23:08:22.440047,"(-7, 2, -3, -12, -6, 0, 3, 4)"
2022/11/28/23:08:22.452935,"(-4, -4, -8, 1, -1, -4, -11, -17)"
2022/11/28/23:08:22.452947,"(10, -3, -3, -7, 0, -1, 0, 9)"
2022/11/28/23:08:22.453528,"(0, 7, 0, -3, -2, 0, -10, -16)"
2022/11/28/23:08:22.453542,"(14, -18, -22, -9, -5, -1, -1, 22)"
2022/11/28/23:08:22.476254,"(-26, 11, 22, 26, 3, -2, 0, -4)"
2022/11/28/23:08:22.476296,"(-16, 3, 20, -12, 2, 1, -5, -3)"
2022/11/28/23:08:22.476876,"(10, -30, -12, 9, 3, -3, 2, 4)"
2022/11/28/23:08:22.476887,"(-8, 37, 5, -8, 1, 3, 7, -4)"
2022/11/28/23:08:22.499191,"(21, -25, -9, -6, -3, -6, -14, -6)"
2022/11/28/23:08:22.499219,"(18, 2, -8, 4, -1, 0, -4, -4)"
2022/11/28/23:08:22.500059,"(-2, 3, -8, 0, 1, -3, -5, 8)"
2022/11/28/23:08:22.500067,"(-9, -7, -1, -5, -2, 0, -8, -12)"
2022/11/28/23:08:22.513697,"(-22, -3, -8, -5, -4, -2, 15, 12)"
2022/11/28/23:08:22.513720,"(3, 1, 3, -9, -1, 1, 0, 13)"
2022/11/28/23:08:22.514176,"(-2, -14, -11, 7, -2, 0, 4, -2)"
2022/11/28/23:08:22.514188,"(19, 5, -1, -12, 1, 1, -3, 6)"
2022/11/28/23:08:22.544122,"(-62, 0, -3, -3, -4, -4, 4, -8)"
2022/11/28/23:08:22.544140,"(0, -10, -4, 21, 1, -1, -12, -34)"
2022/11/28/23:08:22.545090,"(10, 11, 16, -8, -3, -6, -29, -27)"
2022/11/28/23:08:22.545113,"(-21, -14, -5, -10, -3, -2, 7, 6)"
2022/11/28/23:08:22.559072,"(36, 17, 14, -2, -1, 2, -2, 3)"
2022/11/28/23:08:22.559376,"(-7, -2, -3, 16, 3, 1, 9, 14)"
2022/11/28/23:08:22.560071,"(-6, -29, -10, 1, 0, 2, 1, 10)"
2022/11/28/23:08:22.560092,"(-19, 21, 23, 6, -4, -2, -3, -8)"
2022/11/28/23:08:22.573040,"(31, 15, -2, -9, -2, -2, -2, -5)"
2022/11/28/23:08:22.573051,"(-8, -4, -6, -11, -11, -2, -6, -1)"
2022/11/28/23:08:22.573825,"(4, 12, 10, -4, 0, 1, 9, 3)"
2022/11/28/23:08:22.573844,"(5, -22, -10, 4, 0, -4, 0, -4)"
2022/11/28/23:08:22.596717,"(-10, -30, -33, -11, -2, 4, 11, 22)"
2022/11/28/23:08:22.596908,"(-4, 3, 12, 6, -5, -1, 2, -6)"
2022/11/28/23:08:22.598115,"(-3, 10, 14, 12, 2, 0, -1, 5)"
2022/11/28/23:08:22.598284,"(4, 8, -4, -3, 4, -2, -1, -7)"
2022/11/28/23:08:22.618674,"(44, 14, 4, 8, 3, 8, -19, 9)"
2022/11/28/23:08:22.618691,"(10, -13, -13, -12, 0, -3, 4, 3)"
2022/11/28/23:08:22.619725,"(-24, 16, -1, -5, 0, 0, 6, -14)"
2022/11/28/23:08:22.619742,"(4, -5, -11, -12, -2, -3, -12, -12)"
2022/11/28/23:08:22.633270,"(14, -1, 12, 18, 3, -1, 9, -2)"
2022/11/28/23:08:22.633525,"(12, 12, 1, -6, 0, -3, -3, 3)"
2022/11/28/23:08:22.633966,"(17, 5, 21, 11, 2, 0, 1, 12)"
2022/11/28/23:08:22.633981,"(-17, -5, -6, -9, -12, 0, 0, -9)"
2022/11/28/23:08:22.656426,"(-4, -3, -14, -1, 0, -7, -16, -6)"
2022/11/28/23:08:22.656442,"(-21, -9, -2, -5, 6, 1, 1, 3)"
2022/11/28/23:08:22.657235,"(15, 9, 2, 8, 2, -1, 11, 8)"
2022/11/28/23:08:22.657243,"(-17, -9, -7, -8, -5, -1, 1, -1)"
2022/11/28/23:08:22.679309,"(-23, 1, -3, 1, -1, -4, -2, -6)"
2022/11/28/23:08:22.679337,"(6, 12, -1, 3, 3, 3, 1, -6)"
2022/11/28/23:08:22.680027,"(16, -5, -14, -11, -4, -7, -19, 10)"
2022/11/28/23:08:22.680070,"(-25, -6, 9, 6, 2, -6, -22, -19)"
2022/11/28/23:08:22.694278,"(28, 1, -6, -10, -6, 0, -4, 1)"
2022/11/28/23:08:22.694311,"(0, -7, 2, 0, 0, -3, 0, 5)"
2022/11/28/23:08:22.694616,"(-9, 4, 4, -10, 0, 4, 8, 2)"
2022/11/28/23:08:22.694650,"(-1, 7, 0, 26, 5, 0, 4, -2)"
2022/11/28/23:08:22.717373,"(-7, -9, 7, -26, -3, -1, 3, 13)"
2022/11/28/23:08:22.717399,"(-28, -15, -17, 17, -3, -3, -9, -12)"
2022/11/28/23:08:22.718025,"(3, 19, 12, -13, -1, 0, -5, -5)"
2022/11/28/23:08:22.718117,"(13, 0, 20, 2, 3, -1, 1, 12)"
2022/11/28/23:08:22.738787,"(-12, -4, -16, 2, 0, 0, 15, 1)"
2022/11/28/23:08:22.738798,"(0, -5, 6, -6, -7, 0, 2, 3)"
2022/11/28/23:08:22.739684,"(-1, -12, -25, -5, -5, -2, 4, -23)"
2022/11/28/23:08:22.739804,"(-14, -14, -7, 1, -1, 1, 0, 9)"
2022/11/28/23:08:22.753054,"(5, -10, -4, -4, 0, -1, -4, -10)"
2022/11/28/23:08:22.753081,"(2, 28, 4, -10, 4, 1, 13, 13)"
2022/11/28/23:08:22.753870,"(-26, -25, -7, 4, -7, 1, 10, 9)"
2022/11/28/23:08:22.753881,"(32, 5, 1, 21, 8, 3, -11, 6)"
2022/11/28/23:08:22.776942,"(-3, 4, 12, -5, -4, -3, 0, -3)"
2022/11/28/23:08:22.776969,"(15, -4, 3, -6, -3, -4, 1, -1)"
2022/11/28/23:08:22.777960,"(17, 11, -11, -1, 0, -2, -4, -11)"
2022/11/28/23:08:22.778089,"(-48, -12, -1, -2, 0, 0, 8, -4)"
2022/11/28/23:08:22.798838,"(-11, -15, -9, -3, -2, -2, 4, 2)"
2022/11/28/23:08:22.798861,"(11, -1, -4, 2, 0, 0, 0, 19)"
2022/11/28/23:08:22.799824,"(-1, 3, -2, -5, -1, -1, -9, -13)"
2022/11/28/23:08:22.799832,"(1, -6, -1, -9, -5, 3, 12, 4)"
2022/11/28/23:08:22.813972,"(16, 9, -1, 7, 1, -2, -22, -5)"
2022/11/28/23:08:22.813999,"(-63, -11, -4, -13, -4, -3, 7, -16)"
2022/11/28/23:08:22.814953,"(4, -10, -8, 11, -4, 0, 6, 17)"
2022/11/28/23:08:22.814962,"(-4, 1, -3, -9, 1, 0, -2, -3)"
2022/11/28/23:08:22.836318,"(22, 7, 6, -1, 1, 0, -6, 3)"
2022/11/28/23:08:22.836355,"(5, -9, -7, -6, -9, 0, 12, 2)"
2022/11/28/23:08:22.837059,"(9, 5, -9, 1, 3, 4, -3, -5)"
2022/11/28/23:08:22.837068,"(-1, 5, 15, 11, 6, -1, 5, -10)"
2022/11/28/23:08:22.859007,"(-9, 2, 8, -4, -2, 0, 4, -4)"
2022/11/28/23:08:22.859263,"(15, 0, -6, 6, 4, 1, -2, 10)"
2022/11/28/23:08:22.859951,"(-25, -1, 14, -9, -2, -1, 2, -5)"
2022/11/28/23:08:22.859966,"(1, -9, -13, -6, -10, 1, 7, 5)"
2022/11/28/23:08:22.872981,"(19, 3, 0, 3, -1, -5, -1, 8)"
2022/11/28/23:08:22.873004,"(-19, -8, -11, -8, -3, -2, 1, -8)"
2022/11/28/23:08:22.873930,"(-5, 2, 6, 3, 5, 1, -6, 11)"
2022/11/28/23:08:22.873950,"(8, 3, 4, -1, 0, 0, -1, 6)"
2022/11/28/23:08:22.896799,"(27, 5, -2, 2, 0, 0, 10, -1)"
2022/11/28/23:08:22.896811,"(-26, -3, 2, 2, 0, -2, -17, -15)"
2022/11/28/23:08:22.898836,"(-10, -3, -4, 0, 0, -1, 1, -7)"
2022/11/28/23:08:22.898846,"(14, 5, 6, 1, 0, -8, -15, -3)"
2022/11/28/23:08:22.918943,"(-15, -3, -4, 2, -2, 1, 1, -2)"
2022/11/28/23:08:22.918973,"(35, 12, 3, 1, -5, 1, -5, 0)"
2022/11/28/23:08:22.919821,"(-7, -20, -1, 2, 2, -3, 0, 0)"
2022/11/28/23:08:22.919847,"(-3, -2, -3, -8, -2, -3, -5, 0)"
2022/11/28/23:08:22.933187,"(-8, -1, 0, 8, 4, 3, -1, -5)"
2022/11/28/23:08:22.933211,"(-8, 1, 5, 5, -2, -4, -7, -6)"
2022/11/28/23:08:22.934131,"(14, 5, -3, -6, -6, -2, -3, 4)"
2022/11/28/23:08:22.934144,"(-8, -4, -6, -7, -3, 1, 10, 0)"
2022/11/28/23:08:22.955932,"(5, -2, 2, 2, 0, -3, -12, 0)"
2022/11/28/23:08:22.955955,"(15, -6, 3, -2, 1, 1, 5, -6)"
2022/11/28/23:08:22.956407,"(-10, 4, -1, 1, 0, 0, 4, 5)"
2022/11/28/23:08:22.956426,"(8, -4, -6, -2, 3, -3, -7, -10)"
2022/11/28/23:08:22.979000,"(-34, -3, 1, -1, -3, 0, 8, -1)"
2022/11/28/23:08:22.979023,"(26, 2, -2, 1, 2, -1, -7, 1)"
2022/11/28/23:08:22.979639,"(6, -1, 0, -3, -3, -6, -6, 0)"
2022/11/28/23:08:22.979933,"(-2, -1, -1, 0, -1, 2, 2, -1)"
2022/11/28/23:08:22.992324,"(9, 2, -1, 3, 0, -3, -7, -1)"
2022/11/28/23:08:22.992344,"(5, 15, 8, 2, 4, 1, -14, -8)"
2022/11/28/23:08:23.000484,"(-13, -22, 0, 0, -2, -1, -2, -2)"
2022/11/28/23:08:23.000497,"(35, 1, -3, -1, -3, -3, -3, 4)"
2022/11/28/23:08:23.024220,"(-17, 9, 1, -3, -2, -3, -1, -1)"
2022/11/28/23:08:23.024268,"(17, -5, -4, -4, -3, 4, 3, 4)"
2022/11/28/23:08:23.024959,"(-29, 7, -2, 0, -1, -1, -1, -3)"
2022/11/28/23:08:23.025071,"(-15, -4, -3, 0, 2, 0, -1, 25)"
2022/11/28/23:08:23.039639,"(7, -8, -3, -3, -3, 0, 3, 1)"
2022/11/28/23:08:23.039680,"(-11, 4, 0, 0, -1, -3, -8, -1)"
2022/11/28/23:08:23.040453,"(18, 6, 0, -3, -1, -3, -2, 8)"
2022/11/28/23:08:23.040462,"(-13, -6, -3, -5, -4, 1, 5, -2)"
2022/11/28/23:08:23.052386,"(4, 11, 1, 12, 3, -3, -5, -6)"
2022/11/28/23:08:23.052402,"(-8, -17, -1, -1, 10, 1, 5, 7)"
2022/11/28/23:08:23.060882,"(12, 19, 0, 0, -2, -3, 0, -6)"
2022/11/28/23:08:23.061230,"(8, -14, -2, -2, 0, -3, -3, -4)"
2022/11/28/23:08:23.076606,"(-27, -1, -2, -6, -5, -1, 3, -4)"
2022/11/28/23:08:23.076631,"(-2, 2, -1, -1, -5, -4, -7, -8)"
2022/11/28/23:08:23.084242,"(-4, -4, 0, 4, 1, 6, 10, -1)"
2022/11/28/23:08:23.084260,"(12, 10, -1, -1, 1, -2, -8, -6)"
2022/11/28/23:08:23.098995,"(-15, 13, 1, -3, -4, 2, 14, 10)"
2022/11/28/23:08:23.099030,"(36, -19, -9, 0, 0, -1, -3, -3)"
2022/11/28/23:08:23.099777,"(-67, -10, -7, -3, 0, -2, -3, -2)"
2022/11/28/23:08:23.099910,"(-1, 14, 19, 5, -1, -1, -1, -10)"
2022/11/28/23:08:23.112335,"(4, -16, -3, -5, -2, -3, 2, -1)"
2022/11/28/23:08:23.112350,"(-26, 7, 11, 6, 1, 0, 0, -3)"
2022/11/28/23:08:23.120470,"(24, 7, -7, 0, 2, -4, -23, -11)"
2022/11/28/23:08:23.120481,"(9, -9, -1, 0, 1, -1, -2, -2)"
2022/11/28/23:08:23.135918,"(-15, 5, 2, -1, -3, -4, -4, -6)"
2022/11/28/23:08:23.135941,"(18, 6, -14, -4, -2, -2, 3, 10)"
2022/11/28/23:08:23.144237,"(-14, -14, 6, 0, -4, -3, 2, -9)"
2022/11/28/23:08:23.144285,"(6, 5, -10, -2, 0, -2, -8, -2)"
2022/11/28/23:08:23.161055,"(-16, -2, -8, -1, 1, 0, -7, -13)"
2022/11/28/23:08:23.161065,"(42, -1, 12, 1, -4, -1, 4, 7)"
2022/11/28/23:08:23.161070,"(-48, 12, -4, -3, -3, 0, 23, 8)"
2022/11/28/23:08:23.161088,"(-5, -29, -10, -5, -5, 0, -3, -39)"
2022/11/28/23:08:23.172230,"(8, 6, 1, -1, 2, 1, -10, 7)"
2022/11/28/23:08:23.172240,"(25, -6, -22, -3, -3, -2, -3, -1)"
2022/11/28/23:08:23.180782,"(-19, 3, 20, 1, -1, -1, 1, 0)"
2022/11/28/23:08:23.180794,"(17, 15, -3, -1, -2, 2, 7, 8)"
2022/11/28/23:08:23.195905,"(1, -14, -2, -3, -3, -4, -4, 14)"
2022/11/28/23:08:23.195942,"(-27, -4, 5, 0, 0, -1, -7, -14)"
2022/11/28/23:08:23.196807,"(32, 11, -5, 1, 12, -2, -5, -17)"
2022/11/28/23:08:23.196837,"(-32, -6, -6, -4, -2, -3, 10, -4)"
2022/11/28/23:08:23.219085,"(9, -6, 5, 1, 1, 1, 7, 0)"
2022/11/28/23:08:23.219285,"(-15, 1, -2, -4, -3, 1, 2, 13)"
2022/11/28/23:08:23.219978,"(18, -5, -3, 9, -8, 0, 11, 0)"
2022/11/28/23:08:23.220176,"(-18, -3, -1, 0, 2, -4, -23, -31)"
2022/11/28/23:08:23.232224,"(28, 4, -2, 2, 3, 2, 0, 39)"
2022/11/28/23:08:23.232234,"(-19, 2, 3, -5, -3, 0, -2, -3)"
2022/11/28/23:08:23.241225,"(-3, -11, -14, -12, -5, -1, 4, 4)"
2022/11/28/23:08:23.241237,"(-2, -7, 0, 3, -1, -3, 2, 7)"
2022/11/28/23:08:23.255553,"(22, 18, 11, 10, 0, -2, -15, -28)"
2022/11/28/23:08:23.255576,"(-10, -5, -3, -3, 1, 0, 3, -3)"
2022/11/28/23:08:23.256418,"(15, 2, 4, -1, -1, 3, 0, 18)"
2022/11/28/23:08:23.256433,"(-14, -5, -9, -7, -5, -2, 20, -1)"
2022/11/28/23:08:23.279029,"(21, -3, -2, -1, 0, -3, -29, -9)"
2022/11/28/23:08:23.279063,"(6, -1, 1, 3, 2, 2, 8, 48)"
2022/11/28/23:08:23.280075,"(14, -4, -5, -7, -5, 0, -1, -9)"
2022/11/28/23:08:23.280094,"(-4, 6, 5, 3, 0, -11, -7, 3)"
2022/11/28/23:08:23.292398,"(-21, -10, -4, -4, -4, 5, 5, -23)"
2022/11/28/23:08:23.292418,"(-9, 7, 3, -2, 1, -1, 5, -11)"
2022/11/28/23:08:23.300435,"(16, -5, -2, 1, -2, -1, -5, 2)"
2022/11/28/23:08:23.300466,"(-11, 4, 3, 0, 1, 4, -6, 20)"
2022/11/28/23:08:23.315505,"(-15, -6, -7, -7, -8, -2, 4, -13)"
2022/11/28/23:08:23.315520,"(7, -1, -1, 0, 0, -4, -3, -4)"
2022/11/28/23:08:23.316298,"(-21, -4, -2, 0, -2, -1, 2, -34)"
2022/11/28/23:08:23.316308,"(5, 2, 2, 2, 0, 1, -3, -1)"
2022/11/28/23:08:23.338616,"(-14, -4, -8, -5, 1, -3, 5, -11)"
2022/11/28/23:08:23.338641,"(-10, -1, -2, -1, -2, 1, 4, -3)"
2022/11/28/23:08:23.339891,"(21, -2, 3, 0, -2, -5, -15, 7)"
2022/11/28/23:08:23.340170,"(-4, 3, 0, 0, 1, 4, 12, 8)"
2022/11/28/23:08:23.361852,"(-18, -1, -2, -3, -2, -2, -16, -10)"
2022/11/28/23:08:23.361892,"(6, -12, -10, -9, -3, -2, 12, -2)"
2022/11/28/23:08:23.362472,"(10, -10, 7, 5, 2, -1, -9, 17)"
2022/11/28/23:08:23.362497,"(-23, 9, 5, 2, 0, 3, -1, 5)"
2022/11/28/23:08:23.376064,"(16, -4, 0, -1, 1, 2, 14, 11)"
2022/11/28/23:08:23.376097,"(-23, 3, -6, 1, -1, -2, -7, -12)"
2022/11/28/23:08:23.376510,"(-12, -1, -12, -5, 1, -1, -3, -3)"
2022/11/28/23:08:23.376517,"(23, -6, -2, -3, -1, 1, 2, 17)"
2022/11/28/23:08:23.398889,"(17, 3, 2, 1, 1, -4, -14, 1)"
2022/11/28/23:08:23.398901,"(-9, 4, 4, 1, -1, 0, -3, -16)"
2022/11/28/23:08:23.399717,"(7, 1, -3, -1, -3, 2, 3, 3)"
2022/11/28/23:08:23.399733,"(39, 4, 2, -2, 0, -4, -14, -3)"
2022/11/28/23:08:23.421523,"(-19, 0, -11, -14, -2, -1, 5, 3)"
2022/11/28/23:08:23.421559,"(3, -2, 9, 6, 1, -1, -11, 28)"
2022/11/28/23:08:23.422141,"(7, 3, 3, 13, 0, -1, -2, 12)"
2022/11/28/23:08:23.422240,"(2, 0, 3, -9, -1, 7, 4, 1)"
2022/11/28/23:08:23.435686,"(-2, 1, 2, 10, 1, -7, 6, 4)"
2022/11/28/23:08:23.435719,"(-4, -3, -3, 0, 3, -2, 1, -18)"
2022/11/28/23:08:23.436549,"(2, 1, -5, -21, -2, -2, -6, -9)"
2022/11/28/23:08:23.436564,"(-10, -1, 4, 0, -4, 0, -1, 11)"
2022/11/28/23:08:23.458500,"(22, 2, 2, 30, 4, 4, 2, 51)"
2022/11/28/23:08:23.458522,"(-6, 3, 10, 1, -1, -1, 1, -3)"
2022/11/28/23:08:23.459557,"(8, 10, 13, 8, 3, 2, -2, 10)"
2022/11/28/23:08:23.459592,"(25, -7, -11, -15, -2, -3, -4, -7)"
2022/11/28/23:08:23.481695,"(-15, -9, -41, -16, -5, 0, 2, -24)"
2022/11/28/23:08:23.481717,"(-26, -4, 41, 3, -5, -4, 3, -11)"
2022/11/28/23:08:23.482401,"(12, 2, -11, 0, 0, 0, -8, 26)"
2022/11/28/23:08:23.482422,"(-15, 0, 0, -7, -4, -8, -19, -11)"
2022/11/28/23:08:23.495704,"(-3, -3, 3, 5, 0, -1, 6, -7)"
2022/11/28/23:08:23.495730,"(9, 7, -15, -7, 0, 2, -3, 0)"
2022/11/28/23:08:23.496466,"(0, -12, 7, 4, -4, -2, -4, -3)"
2022/11/28/23:08:23.496490,"(-12, 1, -12, 2, 2, 1, 2, 1)"
2022/11/28/23:08:23.518858,"(3, -4, 15, -3, -3, 1, 2, -26)"
2022/11/28/23:08:23.519167,"(-17, 0, -8, 1, 0, -3, -11, -40)"
2022/11/28/23:08:23.520010,"(-37, 0, 5, -7, 3, -1, -3, 1)"
2022/11/28/23:08:23.520034,"(1, -2, -10, 9, -2, 2, 16, 11)"
2022/11/28/23:08:23.541657,"(7, -11, 3, -7, 0, -2, -7, -1)"
2022/11/28/23:08:23.541689,"(6, 1, -5, -9, -3, -2, 2, -6)"
2022/11/28/23:08:23.542215,"(21, -2, -6, 2, -1, -1, -1, -5)"
2022/11/28/23:08:23.542334,"(-19, -1, 0, -2, -2, -1, 4, -1)"
2022/11/28/23:08:23.555552,"(-25, 3, 12, -3, 0, 1, 5, -20)"
2022/11/28/23:08:23.555658,"(24, 1, -5, 1, -1, -1, -1, 10)"
2022/11/28/23:08:23.556412,"(-19, -4, -2, 1, 0, -1, 5, -1)"
2022/11/28/23:08:23.556429,"(-1, 2, -3, -3, 0, -3, -4, 2)"
2022/11/28/23:08:23.579207,"(5, -2, 2, -6, -3, -2, 3, 9)"
2022/11/28/23:08:23.579242,"(-6, -7, -14, -4, -3, -4, -1, -20)"
2022/11/28/23:08:23.579846,"(18, 5, 3, 0, -4, 0, 1, -1)"
2022/11/28/23:08:23.579858,"(-6, 3, 7, 12, 2, 0, 0, -10)"
2022/11/28/23:08:23.601257,"(-39, 4, -1, -8, 0, -1, 5, 4)"
2022/11/28/23:08:23.601274,"(-5, -7, -9, 2, -7, -2, -9, -11)"
2022/11/28/23:08:23.602318,"(2, -1, -3, -7, 0, -2, 9, 3)"
2022/11/28/23:08:23.602342,"(-7, -2, 4, 0, -2, 1, -3, -16)"
2022/11/28/23:08:23.615696,"(12, 0, 2, 4, 1, -1, -1, 11)"
2022/11/28/23:08:23.615717,"(5, 2, -4, -6, 0, 2, 8, 22)"
2022/11/28/23:08:23.616460,"(-3, 1, 2, -2, -2, -3, -6, -16)"
2022/11/28/23:08:23.616478,"(9, 0, 5, 7, 1, 0, 0, 4)"
2022/11/28/23:08:23.639478,"(3, -3, -6, -5, -3, -3, -7, -5)"
2022/11/28/23:08:23.639658,"(-12, -2, 7, -1, -1, 1, 7, 7)"
2022/11/28/23:08:23.640635,"(37, -1, -7, 3, 1, -1, -2, -8)"
2022/11/28/23:08:23.640656,"(-18, -3, -4, -5, 0, -1, 4, -16)"
2022/11/28/23:08:23.661624,"(24, -5, -1, -2, 0, 1, -3, 9)"
2022/11/28/23:08:23.661637,"(1, 4, 0, 0, -3, -1, 0, 12)"
2022/11/28/23:08:23.662805,"(5, -2, -12, -16, -3, -1, 5, 2)"
2022/11/28/23:08:23.662821,"(-5, -4, 5, 8, -4, -1, -2, -2)"
2022/11/28/23:08:23.676085,"(-4, 3, -4, 1, 3, 0, 3, -8)"
2022/11/28/23:08:23.676127,"(12, 0, -1, 5, 1, -1, -6, 0)"
2022/11/28/23:08:23.676914,"(-9, 24, 9, 1, 0, -2, -1, 2)"
2022/11/28/23:08:23.676929,"(11, -14, -1, -7, -1, -2, -8, 6)"
2022/11/28/23:08:23.699493,"(-1, 4, -2, 4, -1, -2, -12, 0)"
2022/11/28/23:08:23.699515,"(0, -3, 0, 2, 6, 1, 7, 11)"
2022/11/28/23:08:23.700263,"(-35, -5, -7, -6, -3, -3, -9, -17)"
2022/11/28/23:08:23.700278,"(-6, 3, -15, -6, 1, 0, -2, 12)"
2022/11/28/23:08:23.721513,"(-2, -11, 9, 4, -3, -2, 10, 4)"
2022/11/28/23:08:23.721534,"(17, 8, 6, 4, -1, 0, -18, 22)"
2022/11/28/23:08:23.723023,"(-4, -6, -5, 11, -1, -2, 0, 9)"
2022/11/28/23:08:23.723392,"(16, 6, 11, -7, 1, 1, 1, 6)"
2022/11/28/23:08:23.735695,"(-9, -4, -14, -17, -4, -1, -14, -6)"
2022/11/28/23:08:23.735721,"(-2, 2, 1, 2, -3, -2, 6, -15)"
2022/11/28/23:08:23.736431,"(30, 6, 13, 13, 3, 0, -20, 31)"
2022/11/28/23:08:23.736442,"(-13, -2, 6, 9, -1, 1, 10, 12)"
2022/11/28/23:08:23.758743,"(43, 8, -10, 1, -1, -1, -3, -5)"
2022/11/28/23:08:23.758766,"(-9, -11, 19, -14, 1, -3, -6, -22)"
2022/11/28/23:08:23.759665,"(3, 3, -17, -5, -8, 1, 4, 20)"
2022/11/28/23:08:23.759685,"(17, 1, 1, 1, 3, 2, 10, -1)"
2022/11/28/23:08:23.781809,"(-17, 6, 0, 0, 1, -1, -1, 1)"
2022/11/28/23:08:23.781847,"(-4, -11, -9, 5, 5, -1, -1, -5)"
2022/11/28/23:08:23.782523,"(-4, -19, 2, -7, -1, 0, 11, 9)"
2022/11/28/23:08:23.782563,"(-14, -3, -13, -8, -6, -8, -4, -28)"
2022/11/28/23:08:23.795620,"(-16, -18, 10, 0, 3, 2, 8, 5)"
2022/11/28/23:08:23.795646,"(3, 15, -9, -6, -2, 0, 4, 18)"
2022/11/28/23:08:23.796346,"(20, -6, 8, 3, -2, -1, -1, -18)"
2022/11/28/23:08:23.796357,"(-2, 7, -5, 6, -1, -1, -2, -5)"
2022/11/28/23:08:23.819536,"(4, 6, 2, -5, -3, 1, 3, -15)"
2022/11/28/23:08:23.819577,"(-21, -13, -17, -12, -8, -3, -4, -7)"
2022/11/28/23:08:23.820048,"(5, 11, 6, 7, -2, -2, 0, -7)"
2022/11/28/23:08:23.820059,"(11, -15, -1, -1, -2, -2, -8, 2)"
2022/11/28/23:08:23.841564,"(-11, 39, 16, -1, 0, 0, -1, 5)"
2022/11/28/23:08:23.841686,"(57, -18, -4, 12, 2, 5, 7, 17)"
2022/11/28/23:08:23.842169,"(-54, -29, -8, -13, 1, 1, -1, -47)"
2022/11/28/23:08:23.842240,"(-11, 2, 5, 2, 0, -3, -17, 27)"
2022/11/28/23:08:23.856788,"(-10, 4, -16, 9, -4, -3, -2, -10)"
2022/11/28/23:08:23.856805,"(4, 13, 17, -4, -3, -5, -10, 4)"
2022/11/28/23:08:23.863909,"(18, -3, -14, -5, -1, 0, 3, 3)"
2022/11/28/23:08:23.863986,"(26, 18, 1, -11, -1, -1, 4, -43)"
2022/11/28/23:08:23.878507,"(-10, -41, -22, -12, -1, -2, 1, 2)"
2022/11/28/23:08:23.878534,"(4, 24, 20, 25, 1, 1, -4, 1)"
2022/11/28/23:08:23.879380,"(-21, -19, -2, -6, 2, -1, 3, 7)"
2022/11/28/23:08:23.879398,"(-14, -19, -12, -5, -1, 1, -2, 15)"
2022/11/28/23:08:23.901492,"(10, 28, 4, 0, -6, -2, 0, -8)"
2022/11/28/23:08:23.901511,"(-6, -2, -12, -9, 3, -4, -5, -3)"
2022/11/28/23:08:23.902426,"(-3, -10, 1, 2, 1, 2, 15, 34)"
2022/11/28/23:08:23.902437,"(-4, 4, -10, 7, -1, -1, -5, -24)"
2022/11/28/23:08:23.915625,"(-6, -17, 6, -8, -2, 0, -21, -11)"
2022/11/28/23:08:23.915656,"(-25, -10, -10, -9, -6, 1, 7, -15)"
2022/11/28/23:08:23.916636,"(-7, 14, 14, 10, 0, -2, 12, 18)"
2022/11/28/23:08:23.916647,"(-5, 5, -23, -13, -1, -2, -32, 13)"
2022/11/28/23:08:23.938657,"(15, -12, 13, 5, 0, -2, 14, -1)"
2022/11/28/23:08:23.938688,"(6, 10, -3, 0, -3, 0, 1, 2)"
2022/11/28/23:08:23.939296,"(-14, -15, -12, -20, -4, -2, -6, 2)"
2022/11/28/23:08:23.939313,"(-12, 11, 12, 23, 0, -3, 4, -36)"
2022/11/28/23:08:23.961218,"(-17, -1, 17, -4, 3, 0, -12, -12)"
2022/11/28/23:08:23.961253,"(-2, -8, -19, -2, -1, 1, 1, 5)"
2022/11/28/23:08:23.962105,"(14, 29, 7, 1, -2, -1, -6, 0)"
2022/11/28/23:08:23.962130,"(2, -18, 8, -8, -2, 1, 13, -4)"
2022/11/28/23:08:23.974777,"(-7, 2, -6, 0, -1, 0, 6, 2)"
2022/11/28/23:08:23.974799,"(13, 4, -1, 4, -3, -2, -2, 0)"
2022/11/28/23:08:23.983391,"(17, 2, -14, -13, -1, -2, -10, -6)"
2022/11/28/23:08:23.983505,"(0, -37, 18, 4, -1, -1, -7, 19)"
2022/11/28/23:08:23.999203,"(-19, 14, 3, 10, 2, 3, 26, -10)"
2022/11/28/23:08:23.999254,"(-8, -9, -5, -1, 2, 3, -8, -5)"
2022/11/28/23:08:24.000062,"(-2, -6, 2, 6, -4, -2, -2, -3)"
2022/11/28/23:08:24.000085,"(-7, 25, 10, -7, 0, 1, 4, -9)"
2022/11/28/23:08:24.021990,"(16, -13, -29, -5, -5, -2, 3, 40)"
2022/11/28/23:08:24.022158,"(-13, -12, 14, 2, -1, -1, -10, -54)"
2022/11/28/23:08:24.023071,"(-74, 4, -8, -2, -2, -2, 5, -7)"
2022/11/28/23:08:24.023100,"(2, -3, -15, -3, -3, -1, 6, 10)"
2022/11/28/23:08:24.034749,"(25, -1, 4, -1, -2, -2, -7, -18)"
2022/11/28/23:08:24.034774,"(13, 2, -14, -12, -2, -3, -7, 14)"
2022/11/28/23:08:24.043459,"(1, 6, 9, 3, 0, 0, -4, -16)"
2022/11/28/23:08:24.043486,"(-22, 4, 9, 1, 0, 2, 12, 15)"
2022/11/28/23:08:24.058266,"(3, -1, -19, -21, -2, -2, -12, -5)"
2022/11/28/23:08:24.058283,"(-12, -2, 12, 20, 1, -1, 7, -7)"
2022/11/28/23:08:24.059164,"(11, -5, -8, -10, 0, 0, -4, -19)"
2022/11/28/23:08:24.059175,"(-4, 4, 10, 0, 0, -3, -2, 0)"
2022/11/28/23:08:24.081351,"(-2, -9, 8, 11, -1, 0, 0, 9)"
2022/11/28/23:08:24.081376,"(-7, -20, -15, -2, 4, 1, 1, 7)"
2022/11/28/23:08:24.082158,"(23, 34, 19, 10, 2, -1, 2, 4)"
2022/11/28/23:08:24.082269,"(-3, 10, 3, -7, -2, -2, -9, 1)"
2022/11/28/23:08:24.095140,"(14, -6, -2, -9, -5, -2, -5, 4)"
2022/11/28/23:08:24.095160,"(-40, -18, -16, -7, -4, -5, 2, -9)"
2022/11/28/23:08:24.103176,"(-18, -9, -12, 3, -2, 1, 3, 2)"
2022/11/28/23:08:24.103211,"(24, 12, 11, -2, -1, -2, 0, 11)"
2022/11/28/23:08:24.117914,"(8, -5, 6, 7, 1, -1, 4, -9)"
2022/11/28/23:08:24.118137,"(-1, 11, 0, -4, -4, -3, -8, 24)"
2022/11/28/23:08:24.118666,"(20, -5, -1, -2, -1, 1, -7, -22)"
2022/11/28/23:08:24.118690,"(1, -6, -10, -3, -1, -1, 3, -20)"
2022/11/28/23:08:24.141397,"(14, 4, -1, 6, -1, -1, -3, 21)"
2022/11/28/23:08:24.141408,"(12, 9, 10, -5, 1, 5, 14, 47)"
2022/11/28/23:08:24.142310,"(-17, 1, 3, 2, 0, -1, -4, -27)"
2022/11/28/23:08:24.142338,"(5, -10, -13, 2, -1, -1, 0, 0)"
2022/11/28/23:08:24.155321,"(-7, 3, 5, 4, -1, -1, -6, -2)"
2022/11/28/23:08:24.155361,"(-2, 8, 1, -6, -1, -4, -10, -2)"
2022/11/28/23:08:24.164207,"(-41, -15, -4, 1, -5, -2, 2, 39)"
2022/11/28/23:08:24.164469,"(-17, -12, -8, -1, -2, 2, 6, -30)"
2022/11/28/23:08:24.178298,"(-20, 3, 1, -5, 1, -3, -8, -49)"
2022/11/28/23:08:24.178320,"(9, 2, 3, -4, -3, -6, 21, 3)"
2022/11/28/23:08:24.179031,"(32, -3, -1, 11, 2, -2, -18, -35)"
2022/11/28/23:08:24.179052,"(-5, 2, -5, -2, 1, 0, 8, 27)"
2022/11/28/23:08:24.201592,"(10, -1, -2, -2, -1, -1, 0, 10)"
2022/11/28/23:08:24.201617,"(9, -5, -1, -2, -1, 1, 0, 2)"
2022/11/28/23:08:24.202545,"(17, -2, -2, -4, -1, -3, -3, -10)"
2022/11/28/23:08:24.202568,"(8, -1, -4, -1, 0, 2, 13, 29)"
2022/11/28/23:08:24.214968,"(-3, -2, -1, 2, 1, 0, -7, -8)"
2022/11/28/23:08:24.214993,"(-14, -6, -1, -1, -2, 0, 1, -20)"
2022/11/28/23:08:24.223592,"(26, 7, 4, 0, -1, 1, -2, 27)"
2022/11/28/23:08:24.223610,"(-36, -6, -8, -4, -3, -5, -9, -18)"
2022/11/28/23:08:24.238359,"(0, -5, -3, -3, -3, 0, 8, 20)"
2022/11/28/23:08:24.238383,"(2, 0, 1, -1, -2, -1, 4, -5)"
2022/11/28/23:08:24.239021,"(46, 7, -3, -1, 0, 0, 2, 11)"
2022/11/28/23:08:24.239032,"(17, -5, -2, -1, -2, -2, -7, 7)"
2022/11/28/23:08:24.261574,"(-19, 3, 3, 1, 2, 0, 8, -7)"
2022/11/28/23:08:24.261619,"(-11, -4, -4, -3, -3, -2, -15, -1)"
2022/11/28/23:08:24.262468,"(-11, -8, -9, -7, -5, -2, 4, 1)"
2022/11/28/23:08:24.262606,"(14, 6, 7, 4, -1, -4, -7, -6)"
2022/11/28/23:08:24.284911,"(-30, 2, 2, 3, 2, 3, 11, 25)"
2022/11/28/23:08:24.284943,"(38, 3, 0, 0, 0, -2, -10, 11)"
2022/11/28/23:08:24.285332,"(-15, 7, -1, -2, 0, 0, 7, -4)"
2022/11/28/23:08:24.285400,"(7, -21, -17, -7, -2, 1, 0, 6)"
2022/11/28/23:08:24.298213,"(-20, -21, 13, 1, -2, -3, -6, -4)"
2022/11/28/23:08:24.298235,"(36, -4, -3, 0, 1, 2, 5, 26)"
2022/11/28/23:08:24.298949,"(-92, 10, 13, -1, -2, 1, 3, -32)"
2022/11/28/23:08:24.298970,"(29, -19, -19, -2, 6, -2, -5, 8)"
2022/11/28/23:08:24.321592,"(-11, 50, 8, -3, -4, -2, -3, -20)"
2022/11/28/23:08:24.321609,"(8, 20, 25, 9, 3, 4, 9, 57)"
2022/11/28/23:08:24.322160,"(72, -20, -15, -6, -2, -2, -6, 7)"
2022/11/28/23:08:24.322197,"(12, -18, 7, 3, -5, -4, -3, 12)"
2022/11/28/23:08:24.344492,"(-30, 6, -11, -4, -3, -2, -5, -21)"
2022/11/28/23:08:24.344511,"(-35, -9, -11, -6, -1, 1, 17, 17)"
2022/11/28/23:08:24.344922,"(3, 4, 2, 1, -2, 0, 0, -12)"
2022/11/28/23:08:24.344929,"(-3, -4, -6, 0, 1, 5, 14, 5)"
2022/11/28/23:08:24.358137,"(-1, -17, -12, -5, -1, -3, -18, 2)"
2022/11/28/23:08:24.358166,"(-43, -6, 3, 2, 0, 1, 6, -2)"
2022/11/28/23:08:24.358794,"(45, 28, 0, -1, -1, -6, -27, -53)"
2022/11/28/23:08:24.358802,"(-11, 6, 5, -2, 0, 0, -1, -31)"
2022/11/28/23:08:24.381726,"(26, -6, -7, 2, -1, 1, 2, 36)"
2022/11/28/23:08:24.381746,"(-23, -1, 7, -4, -5, -4, -12, -23)"
2022/11/28/23:08:24.382406,"(-21, -12, -8, -2, -4, -2, 11, 5)"
2022/11/28/23:08:24.382536,"(25, 7, 5, -1, 2, 2, 4, 9)"
2022/11/28/23:08:24.403611,"(-11, -4, -5, -3, -1, 1, 3, 19)"
2022/11/28/23:08:24.403891,"(28, 2, -6, 0, 0, -1, -4, 5)"
2022/11/28/23:08:24.404169,"(6, 5, 7, 2, -1, 1, 6, 6)"
2022/11/28/23:08:24.404188,"(0, 22, 9, 1, 0, -1, -18, -24)"
2022/11/28/23:08:24.418082,"(16, -12, -1, 9, 0, -1, 5, 19)"
2022/11/28/23:08:24.418103,"(-4, 0, -8, -11, -4, -2, -7, -20)"
2022/11/28/23:08:24.418882,"(-9, -6, 2, 10, 3, 2, 4, 29)"
2022/11/28/23:08:24.418896,"(-25, 2, 3, -6, -6, -2, -3, -33)"
2022/11/28/23:08:24.441600,"(14, -7, -2, 2, -5, -5, -11, -30)"
2022/11/28/23:08:24.441667,"(3, 1, -3, 5, -3, -1, -9, -31)"
2022/11/28/23:08:24.442574,"(-6, -11, -4, -7, -1, -3, -3, 18)"
2022/11/28/23:08:24.442600,"(-20, 0, 6, -3, -4, -2, 0, -14)"
2022/11/28/23:08:24.464251,"(6, 7, 6, 12, -1, -1, -7, 5)"
2022/11/28/23:08:24.464271,"(-14, -12, -15, -9, 0, 0, 10, -30)"
2022/11/28/23:08:24.464730,"(19, -11, -4, -3, -2, -3, -4, -7)"
2022/11/28/23:08:24.464752,"(-2, -6, -10, -2, -1, -1, 12, 55)"
2022/11/28/23:08:24.478465,"(30, 8, 9, -9, 1, -4, -8, -22)"
2022/11/28/23:08:24.478485,"(1, 2, 0, 3, 1, 1, -4, -21)"
2022/11/28/23:08:24.479382,"(-1, -6, 1, 1, 0, -1, -3, -26)"
2022/11/28/23:08:24.479409,"(-10, 5, -3, -2, 2, 0, -4, 5)"
2022/11/28/23:08:24.501355,"(-9, -8, -11, -6, -2, -1, -1, -4)"
2022/11/28/23:08:24.501376,"(-14, -4, 0, -6, -5, -1, 3, -10)"
2022/11/28/23:08:24.502275,"(-4, 5, 3, 12, -1, 2, 6, 30)"
2022/11/28/23:08:24.502326,"(0, 0, -7, -9, 0, -2, -7, -1)"
2022/11/28/23:08:24.524326,"(6, -1, 0, 4, 4, -1, -4, -5)"
2022/11/28/23:08:24.524339,"(9, 2, -14, 5, 2, 0, -10, 0)"
2022/11/28/23:08:24.524612,"(-14, -3, 23, -6, -2, -3, -5, 4)"
2022/11/28/23:08:24.524618,"(-3, 0, -9, -10, -1, -2, 0, -2)"
2022/11/28/23:08:24.538421,"(15, -43, -28, -2, -2, 1, 8, 25)"
2022/11/28/23:08:24.538452,"(-21, 35, 37, 12, -2, -1, -14, -14)"
2022/11/28/23:08:24.539165,"(5, 1, 6, 10, 3, 1, -2, 1)"
2022/11/28/23:08:24.539180,"(5, 3, -1, 4, 0, 4, 16, 44)"
2022/11/28/23:08:24.562172,"(4, 5, 8, -15, -1, -3, -3, -5)"
2022/11/28/23:08:24.562186,"(2, -8, -26, -4, -2, -2, 4, -8)"
2022/11/28/23:08:24.563193,"(-2, -19, -11, -8, -2, 0, -11, 10)"
2022/11/28/23:08:24.563218,"(0, 21, 20, 7, -1, -6, -14, -22)"
2022/11/28/23:08:24.584011,"(33, 9, 3, 1, 1, 2, 4, -5)"
2022/11/28/23:08:24.584040,"(-41, 0, 1, -3, 1, -3, 0, 10)"
2022/11/28/23:08:24.586005,"(2, 10, 2, 0, -2, -1, 3, 4)"
2022/11/28/23:08:24.586022,"(-11, -11, -9, -1, 0, 0, -5, -22)"
2022/11/28/23:08:24.597410,"(-9, 0, 2, 1, -4, -2, 11, -3)"
2022/11/28/23:08:24.597445,"(20, -12, -4, -5, -1, -1, -5, 2)"
2022/11/28/23:08:24.606672,"(-16, -5, -6, -6, 0, 1, 15, 18)"
2022/11/28/23:08:24.606693,"(-13, -3, -2, 6, -2, -1, -4, -9)"
2022/11/28/23:08:24.621952,"(-11, 1, 1, -1, 0, 3, 6, 6)"
2022/11/28/23:08:24.621977,"(6, -2, 6, -2, 1, -1, 3, -3)"
2022/11/28/23:08:24.624120,"(-9, -1, -9, -1, 2, 1, 0, 28)"
2022/11/28/23:08:24.624135,"(18, 5, 3, 0, -2, 1, 6, 29)"
2022/11/28/23:08:24.644975,"(-17, 1, 0, -1, -6, -1, -3, -36)"
2022/11/28/23:08:24.645047,"(11, -3, -4, -4, -2, -3, 1, 0)"
2022/11/28/23:08:24.646376,"(5, 4, -2, -1, 1, -3, -8, -13)"
2022/11/28/23:08:24.646388,"(-12, -3, -2, -1, -2, -2, -9, -52)"
2022/11/28/23:08:24.657301,"(5, 6, 2, -4, 0, -2, -12, 26)"
2022/11/28/23:08:24.657314,"(8, -5, -3, -1, -2, 3, 11, 13)"
2022/11/28/23:08:24.667002,"(-9, -2, -2, -2, 0, -3, -15, -18)"
2022/11/28/23:08:24.667013,"(3, 0, 1, 0, 0, -1, -4, -3)"
2022/11/28/23:08:24.681895,"(-2, 13, 9, 5, 3, -1, -10, -5)"
2022/11/28/23:08:24.681931,"(24, -1, 0, -3, 0, -1, 1, -9)"
2022/11/28/23:08:24.683898,"(28, -1, -5, -3, -1, 1, 5, 24)"
2022/11/28/23:08:24.683906,"(-5, -3, -2, 0, -1, -2, -6, -11)"
2022/11/28/23:08:24.704007,"(-39, -7, -5, -4, -4, 0, 6, -47)"
2022/11/28/23:08:24.704048,"(5, -5, 1, 2, 10, -1, -5, 4)"
2022/11/28/23:08:24.705849,"(3, 2, 4, -2, -1, -2, -3, -2)"
2022/11/28/23:08:24.705876,"(3, 6, 0, 2, -1, -2, -3, 12)"
2022/11/28/23:08:24.717399,"(-6, -3, -1, -2, -1, -1, 3, -2)"
2022/11/28/23:08:24.717427,"(-6, -1, -1, -1, -6, 0, -3, -12)"
2022/11/28/23:08:24.726669,"(-8, -9, -8, -3, 5, -2, -5, -12)"
2022/11/28/23:08:24.726694,"(15, 0, -2, 0, 1, 0, 4, 19)"
2022/11/28/23:08:24.741698,"(-15, -7, -5, -4, -1, 1, 11, 10)"
2022/11/28/23:08:24.741992,"(7, 3, 1, 2, -2, 1, -3, 15)"
2022/11/28/23:08:24.743447,"(-4, 2, -1, -3, -3, -6, -4, -8)"
2022/11/28/23:08:24.743459,"(-5, -3, 0, 1, -1, 2, -3, 2)"
2022/11/28/23:08:24.764567,"(11, 0, 0, 0, 1, -2, -6, 6)"
2022/11/28/23:08:24.764610,"(-14, -3, -3, -3, -1, 3, -1, -3)"
2022/11/28/23:08:24.766563,"(3, 11, 8, 5, -1, 4, 4, 46)"
2022/11/28/23:08:24.766622,"(17, -9, -1, -1, 0, 0, 4, -14)"
2022/11/28/23:08:24.777329,"(-19, -3, -2, -2, -2, -2, 6, -20)"
2022/11/28/23:08:24.777339,"(14, 0, 0, -1, -2, -6, -29, 2)"
2022/11/28/23:08:24.786424,"(-18, -4, -7, -5, -4, -1, 8, -31)"
2022/11/28/23:08:24.786445,"(-10, 1, 2, 1, 1, 2, -3, 11)"
2022/11/28/23:08:24.801357,"(6, 2, 0, 1, -2, -6, -3, -5)"
2022/11/28/23:08:24.801488,"(18, 1, -2, -3, -3, 3, 14, 12)"
2022/11/28/23:08:24.803440,"(-5, -7, -3, 1, 2, 5, -3, -16)"
2022/11/28/23:08:24.803458,"(4, -1, -1, 0, -5, -14, -6, 4)"
2022/11/28/23:08:24.824041,"(-1, -1, -1, -2, 5, 3, 2, 7)"
2022/11/28/23:08:24.825145,"(-3, -2, 2, -2, -4, -5, -4, -7)"
2022/11/28/23:08:24.826072,"(1, -3, -2, -3, -4, 7, 10, -3)"
2022/11/28/23:08:24.826095,"(-7, -1, -1, -4, -4, -6, -13, -2)"
2022/11/28/23:08:24.837611,"(5, 1, -2, 0, -1, 0, 5, 19)"
2022/11/28/23:08:24.837628,"(-11, 0, 0, 1, -1, -1, 1, -7)"
2022/11/28/23:08:24.847059,"(4, -3, -2, -2, 7, -1, 0, -2)"
2022/11/28/23:08:24.847070,"(-10, 1, 0, 0, -1, 2, 7, -3)"
2022/11/28/23:08:24.862410,"(6, 0, -1, -3, -2, -3, -10, -10)"
2022/11/28/23:08:24.862452,"(-4, -3, -1, 0, 1, 0, 2, -6)"
2022/11/28/23:08:24.864453,"(-6, -2, -2, -1, -4, -5, -3, -6)"
2022/11/28/23:08:24.864482,"(3, 0, -1, 0, -1, 4, 4, 2)"
2022/11/28/23:08:24.884957,"(-3, 0, 0, -1, -2, 1, 6, 6)"
2022/11/28/23:08:24.884975,"(3, 3, -2, -1, 1, -3, -4, -13)"
2022/11/28/23:08:24.886690,"(-40, -4, 1, -3, -2, -3, -9, -8)"
2022/11/28/23:08:24.886701,"(-5, -3, -1, -3, 1, 1, -4, -3)"
2022/11/28/23:08:24.897482,"(2, -2, 0, 1, -3, 1, 11, 14)"
2022/11/28/23:08:24.897498,"(1, 2, 3, 1, 9, 3, 6, 60)"
2022/11/28/23:08:24.906898,"(22, 4, 0, -1, -3, -3, 0, 7)"
2022/11/28/23:08:24.906909,"(-6, -8, -4, -3, -9, 2, 2, 3)"
2022/11/28/23:08:24.921156,"(5, 3, 0, 1, 3, -1, -9, -7)"
2022/11/28/23:08:24.921363,"(-9, -4, -5, -3, -5, -4, 1, -14)"
2022/11/28/23:08:24.923590,"(-2, 0, 1, 1, -2, 2, -2, -12)"
2022/11/28/23:08:24.923599,"(23, -1, 0, -1, 1, 0, 8, 12)"
2022/11/28/23:08:24.943964,"(-12, 3, 0, -1, -1, -1, -6, 3)"
2022/11/28/23:08:24.943986,"(-2, -4, -4, -2, -3, -2, -1, -6)"
2022/11/28/23:08:24.945990,"(16, 6, 2, 0, -2, -2, -2, -5)"
2022/11/28/23:08:24.946014,"(-5, -3, 1, 0, 1, 2, -12, -34)"
2022/11/28/23:08:24.957234,"(-3, 5, 0, 0, -1, -2, -3, -16)"
2022/11/28/23:08:24.957252,"(-11, -2, 4, 3, 2, -3, -17, -15)"
2022/11/28/23:08:24.966639,"(-12, -48, -5, 0, 1, 2, 5, 0)"
2022/11/28/23:08:24.966658,"(12, 3, -6, -1, -2, -1, 2, -4)"
2022/11/28/23:08:24.980838,"(2, -1, -7, -4, -1, 0, -5, 17)"
2022/11/28/23:08:24.980851,"(9, 34, 14, 2, 0, 4, 1, 19)"
2022/11/28/23:08:24.987253,"(14, 9, -9, -3, -2, 0, -3, -6)"
2022/11/28/23:08:24.987265,"(-4, -38, -12, 0, 0, -5, -11, 4)"
2022/11/28/23:08:25.004373,"(-10, 24, 5, 2, -1, 0, -1, 37)"
2022/11/28/23:08:25.004394,"(-26, -6, 2, -1, -2, -2, 2, -7)"
2022/11/28/23:08:25.005991,"(15, 10, 8, 1, -2, -3, -1, -8)"
2022/11/28/23:08:25.006002,"(-43, -17, -13, -4, 1, 6, 12, 31)"
2022/11/28/23:08:25.017457,"(12, 2, -1, 2, 1, 6, 7, -11)"
2022/11/28/23:08:25.017484,"(21, -9, -11, -4, -2, -2, -12, 26)"
2022/11/28/23:08:25.027040,"(-29, -4, 16, 3, 3, 2, 6, -17)"
2022/11/28/23:08:25.027057,"(20, 11, 1, -3, -3, -4, -1, -11)"
2022/11/28/23:08:25.040544,"(-16, 3, -8, -2, -1, -1, -5, -39)"
2022/11/28/23:08:25.040614,"(-13, -44, 0, 2, 1, -1, -11, -8)"
2022/11/28/23:08:25.047390,"(71, 31, -4, -1, 0, -2, -2, 57)"
2022/11/28/23:08:25.047399,"(0, 16, 4, 1, 0, -1, 0, 0)"
2022/11/28/23:08:25.063829,"(-38, -41, -4, -3, 0, 0, 5, 7)"
2022/11/28/23:08:25.063854,"(39, 26, -8, -2, -3, -4, -10, 5)"
2022/11/28/23:08:25.065760,"(-52, -18, -15, -9, -4, -3, 2, -5)"
2022/11/28/23:08:25.065784,"(18, -6, 10, 0, -1, -1, 2, 31)"
2022/11/28/23:08:25.077099,"(13, 7, 14, 13, 0, 0, -1, -19)"
2022/11/28/23:08:25.077112,"(30, 10, -30, -15, -5, 2, 20, -3)"
2022/11/28/23:08:25.086755,"(-90, -40, 19, 3, -2, -4, -14, -6)"
2022/11/28/23:08:25.086771,"(0, 41, -2, 11, 2, 2, 4, -23)"
2022/11/28/23:08:25.100866,"(10, 5, 3, -9, -6, -11, -27, -26)"
2022/11/28/23:08:25.100890,"(-14, 2, 0, -2, 0, 1, 3, 15)"
2022/11/28/23:08:25.107270,"(38, 8, 6, -6, -2, 2, 6, -44)"
2022/11/28/23:08:25.107284,"(-6, -6, -24, 0, -1, 2, 27, 24)"
2022/11/28/23:08:25.124115,"(32, 23, 2, -9, -4, -5, -5, 53)"
2022/11/28/23:08:25.124139,"(-28, -67, -16, 8, 1, 1, 1, -39)"
2022/11/28/23:08:25.125924,"(45, 30, 23, -6, -3, -5, -6, 47)"
2022/11/28/23:08:25.125953,"(-73, 43, -6, -4, -3, -3, -9, -15)"
2022/11/28/23:08:25.137251,"(36, -34, 24, 8, 3, 6, 19, 29)"
2022/11/28/23:08:25.137264,"(26, 48, -17, -3, -3, -5, -11, -16)"
2022/11/28/23:08:25.146642,"(47, -95, -35, 12, 3, 1, 2, 7)"
2022/11/28/23:08:25.146658,"(92, 43, 50, 9, 1, 3, -10, 50)"
2022/11/28/23:08:25.161934,"(-47, 34, -23, -46, -5, -4, -2, -62)"
2022/11/28/23:08:25.161968,"(52, 21, 9, -16, -7, -2, -6, -1)"
2022/11/28/23:08:25.168866,"(-69, 22, -7, 77, 4, 0, 9, 69)"
2022/11/28/23:08:25.168874,"(40, -59, 21, -18, 0, -4, -11, -27)"
2022/11/28/23:08:25.184874,"(47, 16, 10, -28, 1, 3, 17, 21)"
2022/11/28/23:08:25.184897,"(26, -40, 4, 7, 1, 1, -6, -28)"
2022/11/28/23:08:25.189853,"(-70, 22, -59, -45, -3, -3, -3, 4)"
2022/11/28/23:08:25.189875,"(-33, -7, 91, -2, -1, -6, -4, -86)"
2022/11/28/23:08:25.197476,"(-24, -32, 38, 83, 10, 3, 10, 23)"
2022/11/28/23:08:25.197510,"(-2, -67, -81, -8, -4, -5, -7, -3)"
2022/11/28/23:08:25.206804,"(54, 97, 114, 18, 6, 6, 3, -6)"
2022/11/28/23:08:25.206816,"(-43, -30, -128, -96, -11, 2, 9, 19)"
2022/11/28/23:08:25.219892,"(-101, -23, 103, -33, -7, -5, -8, -29)"
2022/11/28/23:08:25.219917,"(40, -72, -21, 53, -3, -7, 1, -1)"
2022/11/28/23:08:25.229146,"(34, -7, -45, -31, -4, 0, -1, -5)"
2022/11/28/23:08:25.229173,"(61, 87, -23, 37, 1, 1, -5, -1)"
2022/11/28/23:08:25.244052,"(0, 11, 36, 11, 0, 0, -3, -7)"
2022/11/28/23:08:25.244069,"(-66, -4, -82, -21, -1, 2, 11, 17)"
2022/11/28/23:08:25.245730,"(-42, 59, 58, -24, -5, -7, -8, -65)"
2022/11/28/23:08:25.245739,"(8, -8, -21, -15, -5, 0, 3, 6)"
2022/11/28/23:08:25.266353,"(34, 37, 8, -41, -13, -8, -3, 1)"
2022/11/28/23:08:25.266382,"(-119, -37, -8, -1, -2, -1, -5, 11)"
2022/11/28/23:08:25.268289,"(75, 55, 57, 82, 6, 0, 4, 3)"
2022/11/28/23:08:25.268316,"(-19, 9, 16, 41, 11, 7, -1, 0)"
2022/11/28/23:08:25.279912,"(18, 2, -99, -44, -3, 0, -3, 20)"
2022/11/28/23:08:25.279938,"(43, 27, 9, 6, -5, 1, 10, 0)"
2022/11/28/23:08:25.289165,"(-17, -32, 51, -61, 1, 0, -4, -6)"
2022/11/28/23:08:25.289198,"(-34, -32, 8, 127, 3, -5, -4, 6)"
2022/11/28/23:08:25.304787,"(55, -13, -34, -57, -1, 3, -2, 1)"
2022/11/28/23:08:25.304920,"(15, 34, -3, -37, -7, -7, -1, -8)"
2022/11/28/23:08:25.307115,"(0, -36, -113, 21, -13, 1, -1, -3)"
2022/11/28/23:08:25.307128,"(-11, 17, 94, -13, 19, -3, -4, 9)"
2022/11/28/23:08:25.327403,"(12, -31, 24, 11, -11, 0, -1, 0)"
2022/11/28/23:08:25.327438,"(-5, 32, -17, 49, 12, 12, 9, -6)"
2022/11/28/23:08:25.329390,"(-8, -13, 70, -5, -3, -1, -1, 2)"
2022/11/28/23:08:25.329405,"(5, -44, -110, -48, -15, -15, -13, -1)"
2022/11/28/23:08:25.340019,"(-4, 5, 10, 68, 22, 9, 9, 0)"
2022/11/28/23:08:25.340045,"(-11, 18, 79, -20, -7, 0, -2, 5)"
2022/11/28/23:08:25.349203,"(0, -8, -25, -10, 0, -16, 1, 0)"
2022/11/28/23:08:25.349212,"(5, -24, -21, -37, -12, 42, 1, -3)"
2022/11/28/23:08:25.363940,"(-3, -8, -66, 11, -8, -16, 12, 0)"
2022/11/28/23:08:25.363973,"(-10, 28, 62, 7, -6, 23, 0, 2)"
2022/11/28/23:08:25.365841,"(8, -15, -8, 31, 7, -8, -21, -10)"
2022/11/28/23:08:25.365864,"(-2, -12, -18, -35, 3, 1, 7, -5)"
2022/11/28/23:08:25.386773,"(-2, -1, 6, 7, -3, -3, -11, 6)"
2022/11/28/23:08:25.386806,"(0, 8, 11, 21, 16, 3, 11, 1)"
2022/11/28/23:08:25.388354,"(-3, -11, -15, -48, -14, 14, -3, -4)"
2022/11/28/23:08:25.388364,"(-3, -9, 4, 10, 2, -1, 15, 2)"
2022/11/28/23:08:25.400020,"(-4, -4, -10, 1, -6, 10, -1, 2)"
2022/11/28/23:08:25.400047,"(-1, 7, -1, -27, -2, -23, -26, -8)"
2022/11/28/23:08:25.409350,"(-3, -14, -18, 9, 2, -3, 5, -4)"
2022/11/28/23:08:25.409360,"(0, 6, 11, -2, -3, -18, -17, 5)"
2022/11/28/23:08:25.423798,"(2, -7, -15, 14, -1, 11, 5, 1)"
2022/11/28/23:08:25.424127,"(-2, 7, 16, -33, -2, -19, -3, -2)"
2022/11/28/23:08:25.425802,"(-6, -17, -39, -11, -9, -14, -25, -12)"
2022/11/28/23:08:25.425964,"(4, 1, 20, 32, -4, -8, 11, 6)"
2022/11/28/23:08:25.446666,"(-8, -2, 7, -13, -3, -2, -20, -7)"
2022/11/28/23:08:25.446700,"(-1, 9, 0, 18, 6, 38, 23, 5)"
2022/11/28/23:08:25.448470,"(7, -3, 0, -2, -8, -48, 31, 9)"
2022/11/28/23:08:25.448486,"(2, -7, 2, -25, -5, 9, -3, -10)"
2022/11/28/23:08:25.459845,"(12, -2, -35, -10, -1, -9, -9, 15)"
2022/11/28/23:08:25.459868,"(-17, 5, 22, 13, -4, -4, -1, -30)"
2022/11/28/23:08:25.469133,"(5, -1, 3, 13, 15, 16, -1, 4)"
2022/11/28/23:08:25.469153,"(-7, 1, 22, 0, 3, 2, 0, 8)"
2022/11/28/23:08:25.483779,"(36, 1, -8, 11, 7, 5, 7, -5)"
2022/11/28/23:08:25.483795,"(-54, -12, -12, -35, -7, -9, -8, 19)"
2022/11/28/23:08:25.485696,"(-3, 1, -30, -13, -6, 15, 15, -8)"
2022/11/28/23:08:25.485706,"(11, -3, 22, 7, 0, -17, -5, 28)"
2022/11/28/23:08:25.506985,"(1, 10, 21, 21, 9, 2, -7, -23)"
2022/11/28/23:08:25.507006,"(34, 8, 10, -7, 3, 11, 4, 3)"
2022/11/28/23:08:25.508560,"(-20, -8, -18, -27, -4, 8, -6, -9)"
2022/11/28/23:08:25.508570,"(7, -13, -4, 61, 9, -25, -22, 1)"
2022/11/28/23:08:25.519757,"(-13, -15, -12, -19, -1, 12, 26, 5)"
2022/11/28/23:08:25.519768,"(2, 13, 13, -2, -4, -10, -7, -2)"
2022/11/28/23:08:25.529675,"(4, -9, 7, -12, 1, 1, -6, -9)"
2022/11/28/23:08:25.529700,"(-4, -15, -20, -8, -3, -9, 6, 14)"
2022/11/28/23:08:25.543901,"(-37, 31, 18, 15, 2, 13, -14, -21)"
2022/11/28/23:08:25.543920,"(15, 8, 13, 6, 2, -11, -6, -5)"
2022/11/28/23:08:25.545668,"(-3, -7, -12, -10, 3, 8, 5, 4)"
2022/11/28/23:08:25.545683,"(-2, 0, 5, -22, -2, 6, -1, -4)"
2022/11/28/23:08:25.566586,"(14, -20, -10, 27, 0, -7, -10, -3)"
2022/11/28/23:08:25.566611,"(19, 0, 9, -9, -2, -4, 4, 10)"
2022/11/28/23:08:25.568359,"(-27, 10, 3, 10, -3, 9, -6, 5)"
2022/11/28/23:08:25.568369,"(12, -5, 4, -10, 3, 1, 3, -9)"
2022/11/28/23:08:25.579844,"(14, -4, -20, -7, -4, -9, -10, 16)"
2022/11/28/23:08:25.579858,"(-22, 2, 5, -7, -1, -19, 6, -4)"
2022/11/28/23:08:25.589113,"(13, -14, -12, -6, -6, 12, 5, 12)"
2022/11/28/23:08:25.589145,"(2, 9, -5, 2, -5, -28, -20, -18)"
2022/11/28/23:08:25.604356,"(-59, -22, -12, 0, -6, -10, -6, 4)"
2022/11/28/23:08:25.604389,"(17, 22, 31, 35, 12, 10, 6, 7)"
2022/11/28/23:08:25.611722,"(-7, -25, 0, -3, -1, -3, 4, 4)"
2022/11/28/23:08:25.611736,"(14, 11, -6, -23, -6, 5, 1, 8)"
2022/11/28/23:08:25.626359,"(0, -13, -19, -21, -8, 2, 16, 20)"
2022/11/28/23:08:25.626385,"(-3, -5, -15, -8, -2, -12, -21, -24)"
2022/11/28/23:08:25.628380,"(-35, -3, -10, 2, 7, -3, -10, -14)"
2022/11/28/23:08:25.628394,"(3, 32, 18, -5, -1, 16, 8, 4)"
2022/11/28/23:08:25.649269,"(6, -9, 4, -6, 3, -11, 4, -1)"
2022/11/28/23:08:25.649287,"(9, -29, -5, 14, -5, 3, 3, 4)"
2022/11/28/23:08:25.651219,"(19, 62, -6, -19, -8, -5, -5, -13)"
2022/11/28/23:08:25.651243,"(-61, -55, -14, -27, -6, 3, 9, -7)"
2022/11/28/23:08:25.664118,"(-58, 28, 22, 42, 7, -13, -12, -13)"
2022/11/28/23:08:25.664478,"(-6, 4, -3, 3, 4, 28, 23, 18)"
2022/11/28/23:08:25.666384,"(60, -33, -3, 9, 5, 1, -32, -4)"
2022/11/28/23:08:25.666401,"(15, -1, -15, -8, -4, -1, 5, -21)"
2022/11/28/23:08:25.686263,"(2, 17, -1, -27, 1, -4, -7, -14)"
2022/11/28/23:08:25.686275,"(-2, -8, -3, 0, 3, -4, -14, -11)"
2022/11/28/23:08:25.688008,"(-13, -4, -8, 7, -5, -5, 12, 9)"
2022/11/28/23:08:25.688028,"(3, -3, 13, 6, 5, 7, -5, -27)"
2022/11/28/23:08:25.699839,"(14, 10, -3, -7, -4, -6, -3, 15)"
2022/11/28/23:08:25.699856,"(14, 0, -12, -7, -6, 2, 12, 9)"
2022/11/28/23:08:25.709521,"(-13, 3, 10, 13, 3, 7, 9, -7)"
2022/11/28/23:08:25.709532,"(6, 3, -3, -15, -3, 0, -7, 7)"
2022/11/28/23:08:25.724429,"(41, -4, 6, 25, 0, 3, 9, 0)"
2022/11/28/23:08:25.724457,"(-51, 1, 13, -9, 1, -6, -2, 6)"
2022/11/28/23:08:25.726444,"(-9, 0, 7, -7, -5, -6, -4, 1)"
2022/11/28/23:08:25.726465,"(1, 13, -13, 1, 0, 3, 5, 3)"
2022/11/28/23:08:25.746674,"(18, -21, -7, -14, 0, 4, -13, -11)"
2022/11/28/23:08:25.746740,"(-5, -16, -2, -2, -5, -1, 4, 2)"
2022/11/28/23:08:25.748420,"(10, 5, -2, 17, 1, -5, -8, 4)"
2022/11/28/23:08:25.748442,"(-25, 1, 17, 4, 2, 8, 5, 3)"
2022/11/28/23:08:25.759774,"(43, 8, 6, 0, 3, -2, 23, 7)"
2022/11/28/23:08:25.759790,"(-7, 2, -13, -11, -4, -6, -15, -10)"
2022/11/28/23:08:25.769154,"(-23, -22, -13, -13, -10, -2, 0, -1)"
2022/11/28/23:08:25.769165,"(13, 15, 1, -2, -2, -2, -7, 0)"
2022/11/28/23:08:25.783766,"(-3, 22, 7, -2, -5, 0, 12, 14)"
2022/11/28/23:08:25.783786,"(-21, -3, 4, 10, 5, -4, -14, -19)"
2022/11/28/23:08:25.785461,"(-25, -10, -6, -5, 0, -7, 2, 1)"
2022/11/28/23:08:25.785474,"(39, 4, 7, 4, -3, 8, 0, -1)"
2022/11/28/23:08:25.806248,"(-44, -25, -6, 9, -4, -3, -1, 3)"
2022/11/28/23:08:25.806266,"(24, 2, -3, -10, -4, -2, 2, 2)"
2022/11/28/23:08:25.807974,"(7, 1, 2, -6, 2, -3, -2, 10)"
2022/11/28/23:08:25.807986,"(-5, -7, -7, -2, 1, -4, 0, -3)"
2022/11/28/23:08:25.820244,"(8, 0, -12, -3, -3, -2, -2, -2)"
2022/11/28/23:08:25.820276,"(13, 6, 14, 10, 2, -1, -1, 1)"
2022/11/28/23:08:25.829801,"(7, 4, -2, -2, 0, 1, 7, 10)"
2022/11/28/23:08:25.829814,"(-13, -8, 0, 1, 2, -5, -7, -5)"
2022/11/28/23:08:25.844561,"(21, -5, -4, -10, -2, 1, -12, -7)"
2022/11/28/23:08:25.844688,"(-43, -6, -9, -5, -2, -1, 14, -8)"
2022/11/28/23:08:25.846395,"(12, 3, 4, 6, -1, 0, 7, 6)"
2022/11/28/23:08:25.846406,"(8, 7, 0, -5, -3, -2, -6, -7)"
2022/11/28/23:08:25.866425,"(-12, 2, 7, 13, 2, 0, -4, -4)"
2022/11/28/23:08:25.866487,"(16, -5, -6, -10, -3, -4, -18, 0)"
2022/11/28/23:08:25.868742,"(10, 6, 7, 4, 1, 1, 8, -7)"
2022/11/28/23:08:25.868748,"(16, 11, 0, 8, 10, 4, -15, -1)"
2022/11/28/23:08:25.879862,"(-46, -12, -10, -8, -2, -1, -3, -2)"
2022/11/28/23:08:25.879887,"(18, 4, -4, -4, -3, -2, -2, 3)"
2022/11/28/23:08:25.889162,"(-7, -4, 1, 14, 1, 1, -2, -2)"
2022/11/28/23:08:25.889177,"(-7, 3, 29, 2, -5, -6, 9, 7)"
2022/11/28/23:08:25.904549,"(14, 0, -17, -7, 0, 0, -7, 1)"
2022/11/28/23:08:25.904726,"(10, 9, 17, 3, 0, 0, -3, -1)"
2022/11/28/23:08:25.906328,"(-6, -3, -10, -13, -4, 1, -3, -4)"
2022/11/28/23:08:25.906350,"(-9, -27, -6, 10, -3, -3, 4, -1)"
2022/11/28/23:08:25.927440,"(7, 15, 9, 7, 4, -1, -8, -7)"
2022/11/28/23:08:25.927474,"(-4, -8, -20, -8, -5, -4, 3, 0)"
2022/11/28/23:08:25.929303,"(6, -1, -3, -3, -2, -2, -3, -2)"
2022/11/28/23:08:25.929324,"(-11, -3, -12, -8, -4, -1, 2, 12)"
2022/11/28/23:08:25.939857,"(10, -1, 4, -4, -4, 0, 0, 3)"
2022/11/28/23:08:25.939867,"(-14, -3, -4, 3, -2, 1, 11, 2)"
2022/11/28/23:08:25.949592,"(-1, -2, 0, -7, 0, -4, -18, -9)"
2022/11/28/23:08:25.949616,"(-10, 1, -7, 8, -2, -1, -2, -3)"
2022/11/28/23:08:25.963984,"(2, -6, -5, -13, 0, -2, 1, 2)"
2022/11/28/23:08:25.964027,"(18, -7, 6, 10, 2, -2, -3, 11)"
2022/11/28/23:08:25.966064,"(3, 13, -4, -3, 3, 1, -3, -12)"
2022/11/28/23:08:25.966081,"(0, 1, 4, 3, -3, -1, -4, -9)"
2022/11/28/23:08:25.986356,"(-10, 7, 8, 12, 9, -4, -5, -3)"
2022/11/28/23:08:25.986372,"(11, -17, -7, -12, -5, 1, 0, -4)"
2022/11/28/23:08:25.988091,"(-13, 2, 6, -3, 0, -2, -2, 9)"
2022/11/28/23:08:25.988111,"(-15, -4, -13, -3, -1, -2, 2, -2)"
2022/11/28/23:08:25.999841,"(7, 0, 8, 0, -6, 3, 4, -8)"
2022/11/28/23:08:25.999853,"(4, 1, -2, -1, 2, -2, -2, 11)"
2022/11/28/23:08:26.008973,"(-5, -18, -18, -18, -7, 1, 0, -1)"
2022/11/28/23:08:26.008985,"(-2, -9, 6, 21, -1, -5, -18, 1)"
2022/11/28/23:08:26.024330,"(20, 27, 7, 4, -1, -5, -5, -2)"
2022/11/28/23:08:26.024378,"(-61, -3, -16, -1, -2, 2, 6, -7)"
2022/11/28/23:08:26.026209,"(21, -3, 11, -10, -3, 0, -6, 14)"
2022/11/28/23:08:26.026233,"(-4, 25, -9, 1, -2, -2, -2, -5)"
2022/11/28/23:08:26.046494,"(-13, -27, -8, -21, -7, -2, 2, 1)"
2022/11/28/23:08:26.046526,"(20, 1, 6, 6, 5, -3, -9, -17)"
2022/11/28/23:08:26.048529,"(-2, 4, 35, 29, 7, 1, -2, -6)"
2022/11/28/23:08:26.048542,"(6, -3, 0, -9, -1, 2, 16, 45)"
2022/11/28/23:08:26.060066,"(7, 16, -6, 6, 0, 1, -4, -44)"
2022/11/28/23:08:26.060096,"(9, 20, -18, -26, -3, 0, 7, 1)"
2022/11/28/23:08:26.075240,"(14, -30, 11, 4, 1, 1, -1, 0)"
2022/11/28/23:08:26.075276,"(-29, -18, -25, 4, 0, -5, -4, -12)"
2022/11/28/23:08:26.083326,"(27, 4, 16, 5, -1, -3, 1, 15)"
2022/11/28/23:08:26.083340,"(7, -16, 0, 1, 0, -2, -4, 9)"
2022/11/28/23:08:26.089822,"(24, 16, -1, 4, -1, 0, 2, -9)"
2022/11/28/23:08:26.089834,"(8, 6, -13, -22, -6, -1, -7, -2)"
2022/11/28/23:08:26.106416,"(-32, -10, 2, -9, -1, 1, -2, 1)"
2022/11/28/23:08:26.106434,"(12, -17, -10, 21, -4, -4, -10, -11)"
2022/11/28/23:08:26.108418,"(-23, 25, 4, -6, 0, -1, 7, 6)"
2022/11/28/23:08:26.108425,"(-2, -7, 7, -6, -2, 0, 12, -7)"
2022/11/28/23:08:26.120313,"(-3, 10, 1, 5, -4, 0, -2, 15)"
2022/11/28/23:08:26.120333,"(10, -13, -2, -17, 5, -2, -6, 3)"
2022/11/28/23:08:26.129699,"(-13, -3, -2, 19, -4, -2, -1, -2)"
2022/11/28/23:08:26.129713,"(9, 8, 8, -7, 6, 3, 4, -12)"
2022/11/28/23:08:26.143394,"(-11, -14, -1, -6, -1, -1, -7, -9)"
2022/11/28/23:08:26.143425,"(1, 14, -3, 0, -7, -3, 0, 4)"
2022/11/28/23:08:26.149902,"(-12, -8, -19, -15, -4, -3, -1, -5)"
2022/11/28/23:08:26.149931,"(-1, 3, 5, 3, -3, -2, 4, 2)"
2022/11/28/23:08:26.166266,"(3, -5, -13, -11, 1, 4, 3, 7)"
2022/11/28/23:08:26.166458,"(-6, 14, 11, 15, 1, 3, 7, -2)"
2022/11/28/23:08:26.168310,"(-3, 7, -2, -4, -2, -8, -16, -5)"
2022/11/28/23:08:26.168331,"(2, -24, -10, -21, -12, 1, 11, -1)"
2022/11/28/23:08:26.189102,"(-12, -8, -14, 45, 7, -8, -19, -3)"
2022/11/28/23:08:26.189316,"(6, 18, 38, -10, 0, 2, -8, 7)"
2022/11/28/23:08:26.191025,"(-25, -7, -17, -3, -13, 7, 11, -10)"
2022/11/28/23:08:26.191051,"(5, 10, 12, -2, 5, -7, -4, 1)"
2022/11/28/23:08:26.203630,"(1, -6, -18, -29, -8, -2, 6, 1)"
2022/11/28/23:08:26.203661,"(-22, -36, -25, -1, -7, -4, -7, -7)"
2022/11/28/23:08:26.210006,"(25, 19, 21, 14, 3, 0, 0, 8)"
2022/11/28/23:08:26.210032,"(-12, -4, 0, -3, 2, 1, -5, -5)"
2022/11/28/23:08:26.226460,"(-2, -13, -2, -9, -5, -3, 0, 5)"
2022/11/28/23:08:26.226480,"(16, 5, -1, 1, -4, -1, 1, 7)"
2022/11/28/23:08:26.228384,"(-4, -8, -13, -19, 0, -3, 2, 5)"
2022/11/28/23:08:26.228393,"(-2, 6, 1, 25, 9, -1, -11, -7)"
2022/11/28/23:08:26.248676,"(12, 0, 1, -12, -1, -5, 1, 15)"
2022/11/28/23:08:26.248967,"(20, 8, 11, 7, -6, -1, 1, -7)"
2022/11/28/23:08:26.250617,"(-59, -13, -32, 6, 8, -3, 1, -3)"
2022/11/28/23:08:26.250639,"(-1, 3, 33, 8, 0, 7, 2, -5)"
2022/11/28/23:08:26.262869,"(-3, -1, 2, 4, 3, -5, 6, 2)"
2022/11/28/23:08:26.262903,"(-1, 3, -10, -10, 3, 2, -8, -2)"
2022/11/28/23:08:26.271698,"(14, 1, -3, -5, -3, -8, 1, -1)"
2022/11/28/23:08:26.271718,"(6, 2, -1, 2, -4, 10, 17, 2)"
2022/11/28/23:08:26.286845,"(-10, -3, 11, -3, 0, -5, -7, -13)"
2022/11/28/23:08:26.286896,"(0, 0, -10, -4, -5, 0, -1, -2)"
2022/11/28/23:08:26.288748,"(2, -1, -2, -4, 1, -1, -3, -8)"
2022/11/28/23:08:26.288765,"(0, -1, -6, -1, -2, -1, -6, 3)"
2022/11/28/23:08:26.310386,"(6, -4, 4, -5, -3, 3, 0, -9)"
2022/11/28/23:08:26.310430,"(-7, 1, 0, -1, -1, -5, 10, 12)"
2022/11/28/23:08:26.312091,"(3, 0, 1, -3, 1, 1, -9, 2)"
2022/11/28/23:08:26.312102,"(11, -2, -7, 11, 3, -2, -7, -3)"
2022/11/28/23:08:26.322268,"(-15, 5, 12, 3, -1, -2, 17, -3)"
2022/11/28/23:08:26.322288,"(17, 2, 5, -2, -1, 0, -6, 4)"
2022/11/28/23:08:26.331963,"(-11, -8, 7, 4, 5, 0, -2, -16)"
2022/11/28/23:08:26.331980,"(-16, -13, -22, -13, -9, -2, 6, -1)"
2022/11/28/23:08:26.347017,"(6, -17, -13, -17, -3, -5, -19, 3)"
2022/11/28/23:08:26.347176,"(-5, 30, 19, 23, 4, 2, 4, 4)"
2022/11/28/23:08:26.348773,"(24, -1, 2, -7, -2, 2, 11, 11)"
2022/11/28/23:08:26.348794,"(4, -1, -4, 12, 0, -7, -18, -9)"
2022/11/28/23:08:26.369104,"(-7, -29, -11, -13, -1, 5, 7, 17)"
2022/11/28/23:08:26.369161,"(8, 13, 8, 2, 1, -4, -6, -7)"
2022/11/28/23:08:26.370410,"(25, 9, 5, -1, 0, 3, 4, 26)"
2022/11/28/23:08:26.370421,"(-36, -6, 7, -4, -6, -2, -10, -36)"
2022/11/28/23:08:26.382475,"(-3, 16, 6, -2, 2, 2, 3, -5)"
2022/11/28/23:08:26.382488,"(4, -10, -16, 2, 1, 1, 0, -2)"
2022/11/28/23:08:26.392230,"(-38, -10, 3, 4, -4, -3, -2, -5)"
2022/11/28/23:08:26.392247,"(7, -17, -11, -13, 1, -3, -1, 14)"
2022/11/28/23:08:26.407196,"(9, 21, 6, 3, -1, 2, 2, -1)"
2022/11/28/23:08:26.407212,"(-20, 0, -13, -16, -3, -3, -3, -7)"
2022/11/28/23:08:26.408927,"(25, -2, 12, 22, 5, 5, 4, 2)"
2022/11/28/23:08:26.408951,"(8, 22, -3, -15, -2, -4, -2, 15)"
2022/11/28/23:08:26.429561,"(-4, -34, -11, 3, -2, 0, -12, -8)"
2022/11/28/23:08:26.429579,"(16, 18, -7, -5, -1, -2, 8, 0)"
2022/11/28/23:08:26.431581,"(-15, -4, 21, 9, 13, -4, -17, -20)"
2022/11/28/23:08:26.431599,"(31, 4, 0, -10, -3, -3, -1, 12)"
2022/11/28/23:08:26.442497,"(-68, 1, -9, 13, 1, 1, 1, -19)"
2022/11/28/23:08:26.442522,"(14, -9, -3, -5, 0, -3, -7, 5)"
2022/11/28/23:08:26.451469,"(6, -19, -23, -14, -8, 2, 8, -7)"
2022/11/28/23:08:26.451493,"(-24, 7, 3, 4, 2, -6, -13, -17)"
2022/11/28/23:08:26.466842,"(15, 11, 6, -21, -3, -3, -7, 8)"
2022/11/28/23:08:26.468966,"(-8, -14, -3, 23, 1, 0, 5, -7)"
2022/11/28/23:08:26.468979,"(-1, 9, 7, -1, 0, 3, 1, 10)"
2022/11/28/23:08:26.469001,"(-12, -2, 4, 0, 2, 3, 1, 9)"
2022/11/28/23:08:26.488703,"(62, 10, -18, -6, 1, -2, 0, -5)"
2022/11/28/23:08:26.489069,"(-44, -14, 20, 8, -3, -2, 1, -24)"
2022/11/28/23:08:26.490805,"(9, 3, -10, -10, -3, -3, 0, 9)"
2022/11/28/23:08:26.490823,"(40, -12, 7, 9, 6, 3, -1, -11)"
2022/11/28/23:08:26.503981,"(-69, 16, 1, -3, -1, 2, 6, -6)"
2022/11/28/23:08:26.504113,"(15, -8, -12, -21, -4, -2, -7, 0)"
2022/11/28/23:08:26.509835,"(-16, 2, -2, 12, 1, -2, 2, -5)"
2022/11/28/23:08:26.509861,"(8, 0, 1, 0, 1, -2, 10, 19)"
2022/11/28/23:08:26.526587,"(13, -15, -6, -3, 7, 0, -26, -15)"
2022/11/28/23:08:26.526611,"(9, 20, 25, 8, 3, 3, 14, 6)"
2022/11/28/23:08:26.528429,"(13, -18, -9, -3, -6, -3, -3, 5)"
2022/11/28/23:08:26.528447,"(-3, -9, 10, -6, -3, -2, -10, -11)"
2022/11/28/23:08:26.548775,"(17, 16, -14, 6, -3, 2, 9, 8)"
2022/11/28/23:08:26.548870,"(-8, 46, 16, -6, -1, -2, -5, -3)"
2022/11/28/23:08:26.550824,"(17, -67, -29, -3, 0, -3, -8, 10)"
2022/11/28/23:08:26.550843,"(-41, 10, 24, 6, -3, 3, 17, -3)"
2022/11/28/23:08:26.563586,"(29, -3, -1, 2, 0, -1, -15, -4)"
2022/11/28/23:08:26.563609,"(-57, -16, -11, -9, -6, -3, -5, 4)"
2022/11/28/23:08:26.569789,"(8, 28, -6, -16, -8, -3, 2, -6)"
2022/11/28/23:08:26.569810,"(7, -6, -20, 13, -1, -3, -5, -3)"
2022/11/28/23:08:26.586214,"(-16, 2, 7, 2, -4, 1, 9, 5)"
2022/11/28/23:08:26.586242,"(17, -7, 4, 1, -7, -1, 0, 5)"
2022/11/28/23:08:26.588396,"(-13, 6, -3, -3, -1, -2, -2, 12)"
2022/11/28/23:08:26.588407,"(7, -4, -9, -7, -2, 6, 1, -7)"
2022/11/28/23:08:26.609317,"(39, 15, 2, 9, -4, -6, 15, -6)"
2022/11/28/23:08:26.609361,"(23, -35, -20, -9, 7, 0, -1, 12)"
2022/11/28/23:08:26.611274,"(-55, 9, 18, -4, -3, 1, 5, -13)"
2022/11/28/23:08:26.611299,"(14, 24, 2, 0, 0, -3, 2, -1)"
2022/11/28/23:08:26.623520,"(-25, -9, 6, -3, 0, 3, -8, 1)"
2022/11/28/23:08:26.623552,"(-16, -30, 16, 25, 8, -1, -4, -19)"
2022/11/28/23:08:26.629832,"(17, 23, -7, -11, -3, -2, 5, 3)"
2022/11/28/23:08:26.629856,"(-9, -11, -17, 1, -1, -4, -7, 8)"
2022/11/28/23:08:26.646534,"(-13, 27, 10, -4, -3, -1, 1, -7)"
2022/11/28/23:08:26.646553,"(8, -4, -16, -7, -7, -3, 4, 8)"
2022/11/28/23:08:26.648585,"(15, 21, 1, -4, -1, 3, -14, -15)"
2022/11/28/23:08:26.648597,"(22, -14, 6, 8, 2, -3, -11, 3)"
2022/11/28/23:08:26.668622,"(-11, -19, -1, 1, 1, 1, 11, 15)"
2022/11/28/23:08:26.668634,"(-11, -3, -1, -13, -2, 2, 11, 2)"
2022/11/28/23:08:26.670377,"(28, 7, -13, 6, 1, -2, -10, 7)"
2022/11/28/23:08:26.670395,"(-23, 6, 13, -6, 9, 1, 6, -35)"
2022/11/28/23:08:26.682659,"(10, -10, -12, -11, 6, 1, 3, 2)"
2022/11/28/23:08:26.682698,"(20, 10, -4, 16, -1, -1, 0, 5)"
2022/11/28/23:08:26.692101,"(-73, -12, 11, -10, 3, 0, -2, -2)"
2022/11/28/23:08:26.692113,"(25, -2, -11, 1, -3, -6, -8, -18)"
2022/11/28/23:08:26.706810,"(7, -4, 9, 5, -4, -2, -2, 2)"
2022/11/28/23:08:26.706832,"(-12, -5, -2, -20, -1, 0, 5, -9)"
2022/11/28/23:08:26.708523,"(18, -1, -6, 7, -1, -5, -6, 2)"
2022/11/28/23:08:26.708542,"(-25, -6, -6, -11, -6, -1, -1, 18)"
2022/11/28/23:08:26.729042,"(-2, 10, 0, 8, -2, 0, 6, 4)"
2022/11/28/23:08:26.729063,"(6, -17, -4, -5, -3, 3, 1, 0)"
2022/11/28/23:08:26.730742,"(1, -17, -7, 5, -5, -5, -13, -5)"
2022/11/28/23:08:26.730757,"(-7, 45, 18, -2, -4, -3, 1, 13)"
2022/11/28/23:08:26.742764,"(16, -42, -11, -1, -3, 2, 1, 7)"
2022/11/28/23:08:26.742798,"(-18, 6, -5, -6, 1, 0, 7, -6)"
2022/11/28/23:08:26.757435,"(19, 5, 18, 8, 4, -1, -3, -6)"
2022/11/28/23:08:26.757448,"(-16, -9, -16, -3, -2, 1, 5, 2)"
2022/11/28/23:08:26.766216,"(-23, 6, 0, -1, -4, -3, -1, -1)"
2022/11/28/23:08:26.766228,"(-9, 1, 3, 3, -2, -3, -15, -7)"
2022/11/28/23:08:26.768138,"(7, -4, 1, -2, 2, 1, 6, 3)"
2022/11/28/23:08:26.768152,"(13, -6, -6, -4, -4, 1, 1, 10)"
2022/11/28/23:08:26.789303,"(15, 6, 7, 7, 3, -3, -9, -6)"
2022/11/28/23:08:26.789335,"(-3, 0, -3, 1, 1, 0, 1, -4)"
2022/11/28/23:08:26.790785,"(11, 4, 0, -6, -3, -4, 3, 0)"
2022/11/28/23:08:26.790795,"(7, -2, -1, 7, 3, 7, 13, 23)"
2022/11/28/23:08:26.802491,"(-12, -6, -2, 1, -3, -4, -10, -12)"
2022/11/28/23:08:26.802514,"(11, -4, -5, -3, -3, 3, -6, 2)"
2022/11/28/23:08:26.812164,"(14, 9, 5, 2, 2, -1, -24, -14)"
2022/11/28/23:08:26.812176,"(-8, -15, -4, -2, -4, -2, -5, -3)"
2022/11/28/23:08:26.827772,"(0, 18, 7, 2, -1, 1, -11, -13)"
2022/11/28/23:08:26.827787,"(6, 37, 3, -1, -1, -4, 3, 26)"
2022/11/28/23:08:26.829612,"(-31, -92, -11, -7, -6, -4, 11, 4)"
2022/11/28/23:08:26.829623,"(-15, 1, 1, -1, -3, -3, -7, -16)"
2022/11/28/23:08:26.848967,"(39, 4, 3, 3, 7, 13, -6, -6)"
2022/11/28/23:08:26.848980,"(-41, 16, 4, 0, -2, -34, -23, -9)"
2022/11/28/23:08:26.850640,"(-6, 25, 2, 1, -2, 10, 9, -8)"
2022/11/28/23:08:26.850652,"(6, -1, -4, 2, 3, -2, -11, -7)"
2022/11/28/23:08:26.862579,"(-13, -14, -6, -15, -9, -3, 16, 13)"
2022/11/28/23:08:26.862599,"(16, -4, 0, 15, 5, 9, 4, -5)"
2022/11/28/23:08:26.871748,"(-1, 8, -2, -3, -4, -1, 2, -14)"
2022/11/28/23:08:26.871756,"(-8, -11, -2, -2, -6, -2, -1, 4)"
2022/11/28/23:08:26.887368,"(4, 8, 4, 1, -2, -4, -2, -1)"
2022/11/28/23:08:26.887374,"(-6, -12, -1, -6, -2, 5, -5, -3)"
2022/11/28/23:08:26.888960,"(-1, 7, -3, -3, -4, -4, -4, -8)"
2022/11/28/23:08:26.888974,"(6, 5, -1, -2, 0, 3, 3, -1)"
